sample_index,timestamp_unix,elapsed_seconds,raw_value,voltage
0,1782079210.2928646,0.001475,1383,1.6882
1,1782079210.293011,0.001621,1381,1.6858
2,1782079210.2931044,0.001715,1385,1.6907
3,1782079210.2932792,0.001890,1380,1.6846
4,1782079210.2937713,0.002382,1375,1.6785
5,1782079210.2942717,0.002882,1370,1.6724
6,1782079210.294743,0.003354,1374,1.6772
7,1782079210.295354,0.003964,1373,1.6760
8,1782079210.2958367,0.004447,1375,1.6785
9,1782079210.2963114,0.004922,1378,1.6821
10,1782079210.296868,0.005479,1370,1.6724
11,1782079210.297352,0.005963,1377,1.6809
12,1782079210.2983434,0.006954,1376,1.6797
13,1782079210.2984447,0.007055,1382,1.6870
14,1782079210.2988143,0.007425,1378,1.6821
15,1782079210.2993343,0.007945,1380,1.6846
16,1782079210.299798,0.008409,1377,1.6809
17,1782079210.3052745,0.013885,1386,1.6919
18,1782079210.3110416,0.019652,1381,1.6858
19,1782079210.314465,0.023076,1382,1.6870
20,1782079210.3145819,0.023192,1386,1.6919
21,1782079210.314688,0.023299,1385,1.6907
22,1782079210.3147297,0.023340,1389,1.6956
23,1782079210.3155186,0.024129,1386,1.6919
24,1782079210.3163555,0.024966,1396,1.7041
25,1782079210.316473,0.025084,1391,1.6980
26,1782079210.3165498,0.025160,1390,1.6968
27,1782079210.3174,0.026011,1388,1.6943
28,1782079210.318212,0.026823,1392,1.6992
29,1782079210.3183837,0.026994,1392,1.6992
30,1782079210.3184795,0.027090,1387,1.6931
31,1782079210.3202314,0.028842,1388,1.6943
32,1782079210.3203065,0.028917,1391,1.6980
33,1782079210.3212411,0.029852,1385,1.6907
34,1782079210.3213482,0.029959,1382,1.6870
35,1782079210.3214161,0.030027,1381,1.6858
36,1782079210.3214638,0.030074,1380,1.6846
37,1782079210.3230805,0.031691,1378,1.6821
38,1782079210.3245637,0.033174,1377,1.6809
39,1782079210.324673,0.033283,1369,1.6711
40,1782079210.3256009,0.034211,1370,1.6724
41,1782079210.325669,0.034280,1369,1.6711
42,1782079210.3312309,0.039841,1369,1.6711
43,1782079210.331445,0.040056,1367,1.6687
44,1782079210.331572,0.040183,1362,1.6626
45,1782079210.3316793,0.040290,1365,1.6663
46,1782079210.3317885,0.040399,1364,1.6650
47,1782079210.331853,0.040463,1363,1.6638
48,1782079210.331962,0.040573,1365,1.6663
49,1782079210.3320308,0.040641,1368,1.6699
50,1782079210.332122,0.040733,1361,1.6614
51,1782079210.332189,0.040800,1363,1.6638
52,1782079210.3323183,0.040929,1363,1.6638
53,1782079210.3323865,0.040997,1365,1.6663
54,1782079210.3368814,0.045492,1358,1.6577
55,1782079210.3369808,0.045591,1360,1.6602
56,1782079210.337722,0.046333,1358,1.6577
57,1782079210.3380458,0.046656,1362,1.6626
58,1782079210.3381214,0.046732,1362,1.6626
59,1782079210.338254,0.046865,1361,1.6614
60,1782079210.3392236,0.047834,1364,1.6650
61,1782079210.3393013,0.047912,1362,1.6626
62,1782079210.3393464,0.047957,1371,1.6736
63,1782079210.3393736,0.047984,1366,1.6675
64,1782079210.3407137,0.049324,1372,1.6748
65,1782079210.3414485,0.050059,1374,1.6772
66,1782079210.3415082,0.050119,1374,1.6772
67,1782079210.3416197,0.050230,1371,1.6736
68,1782079210.34176,0.050370,1373,1.6760
69,1782079210.3418224,0.050433,1373,1.6760
70,1782079210.3418832,0.050494,1373,1.6760
71,1782079210.3419466,0.050557,1371,1.6736
72,1782079210.341999,0.050610,1369,1.6711
73,1782079210.3420637,0.050674,1369,1.6711
74,1782079210.34212,0.050730,1366,1.6675
75,1782079210.3421762,0.050787,1368,1.6699
76,1782079210.3431733,0.051784,1362,1.6626
77,1782079210.3432965,0.051907,1358,1.6577
78,1782079210.3439088,0.052519,1357,1.6565
79,1782079210.343969,0.052580,1354,1.6528
80,1782079210.3440545,0.052665,1354,1.6528
81,1782079210.3441184,0.052729,1350,1.6479
82,1782079210.344159,0.052769,1346,1.6431
83,1782079210.3441935,0.052804,1352,1.6504
84,1782079210.3442533,0.052864,1345,1.6418
85,1782079210.3443325,0.052943,1340,1.6357
86,1782079210.3443723,0.052983,1341,1.6370
87,1782079210.3450224,0.053633,1337,1.6321
88,1782079210.3451853,0.053796,1337,1.6321
89,1782079210.345252,0.053863,1341,1.6370
90,1782079210.3453562,0.053967,1341,1.6370
91,1782079210.345417,0.054028,1336,1.6309
92,1782079210.3454616,0.054072,1333,1.6272
93,1782079210.3462653,0.054876,1336,1.6309
94,1782079210.3463666,0.054977,1338,1.6333
95,1782079210.3464427,0.055053,1339,1.6345
96,1782079210.3464842,0.055095,1337,1.6321
97,1782079210.3500407,0.058651,1342,1.6382
98,1782079210.3501134,0.058724,1345,1.6418
99,1782079210.3501735,0.058784,1349,1.6467
100,1782079210.35021,0.058820,1350,1.6479
101,1782079210.3502593,0.058870,1352,1.6504
102,1782079210.3502934,0.058904,1362,1.6626
103,1782079210.3503475,0.058958,1361,1.6614
104,1782079210.3503828,0.058993,1367,1.6687
105,1782079210.3504193,0.059030,1368,1.6699
106,1782079210.3506482,0.059259,1363,1.6638
107,1782079210.3507056,0.059316,1369,1.6711
108,1782079210.3510199,0.059630,1367,1.6687
109,1782079210.3510628,0.059673,1366,1.6675
110,1782079210.351171,0.059782,1365,1.6663
111,1782079210.3512025,0.059813,1363,1.6638
112,1782079210.3512523,0.059863,1360,1.6602
113,1782079210.3512938,0.059904,1368,1.6699
114,1782079210.3513298,0.059940,1361,1.6614
115,1782079210.3513682,0.059979,1368,1.6699
116,1782079210.3513918,0.060002,1358,1.6577
117,1782079210.3514411,0.060052,1353,1.6516
118,1782079210.3514652,0.060076,1357,1.6565
119,1782079210.3515198,0.060130,1353,1.6516
120,1782079210.352321,0.060931,1351,1.6492
121,1782079210.353164,0.061774,1354,1.6528
122,1782079210.353218,0.061829,1346,1.6431
123,1782079210.3533883,0.061999,1337,1.6321
124,1782079210.3538554,0.062466,1341,1.6370
125,1782079210.3548815,0.063492,1340,1.6357
126,1782079210.355116,0.063726,1339,1.6345
127,1782079210.3553476,0.063958,1333,1.6272
128,1782079210.3563678,0.064978,1336,1.6309
129,1782079210.3564394,0.065050,1340,1.6357
130,1782079210.3568604,0.065471,1336,1.6309
131,1782079210.3574839,0.066094,1331,1.6248
132,1782079210.3578613,0.066472,1341,1.6370
133,1782079210.358436,0.067047,1334,1.6284
134,1782079210.3589451,0.067556,1336,1.6309
135,1782079210.359431,0.068042,1343,1.6394
136,1782079210.359931,0.068542,1343,1.6394
137,1782079210.3603537,0.068964,1342,1.6382
138,1782079210.3609068,0.069517,1350,1.6479
139,1782079210.3614488,0.070059,1349,1.6467
140,1782079210.3619473,0.070558,1352,1.6504
141,1782079210.3623703,0.070981,1351,1.6492
142,1782079210.3628812,0.071492,1350,1.6479
143,1782079210.363383,0.071994,1349,1.6467
144,1782079210.3638935,0.072504,1353,1.6516
145,1782079210.3644059,0.073016,1351,1.6492
146,1782079210.364951,0.073561,1355,1.6541
147,1782079210.365416,0.074027,1351,1.6492
148,1782079210.3659308,0.074541,1350,1.6479
149,1782079210.3664565,0.075067,1349,1.6467
150,1782079210.3669405,0.075551,1347,1.6443
151,1782079210.3678412,0.076452,1352,1.6504
152,1782079210.3679376,0.076548,1348,1.6455
153,1782079210.3684874,0.077098,1350,1.6479
154,1782079210.3689096,0.077520,1344,1.6406
155,1782079210.380282,0.088892,1340,1.6357
156,1782079210.3821933,0.090804,1339,1.6345
157,1782079210.383047,0.091658,1329,1.6223
158,1782079210.3831286,0.091739,1334,1.6284
159,1782079210.383729,0.092340,1327,1.6199
160,1782079210.383781,0.092391,1327,1.6199
161,1782079210.3842666,0.092877,1325,1.6174
162,1782079210.3843188,0.092929,1323,1.6150
163,1782079210.384799,0.093410,1320,1.6113
164,1782079210.3848515,0.093462,1319,1.6101
165,1782079210.3852935,0.093904,1319,1.6101
166,1782079210.3853366,0.093947,1317,1.6077
167,1782079210.3896053,0.098216,1315,1.6052
168,1782079210.3897872,0.098398,1321,1.6125
169,1782079210.389947,0.098557,1317,1.6077
170,1782079210.3900435,0.098654,1326,1.6187
171,1782079210.3901427,0.098753,1318,1.6089
172,1782079210.390235,0.098845,1322,1.6138
173,1782079210.3903718,0.098982,1323,1.6150
174,1782079210.3904755,0.099086,1321,1.6125
175,1782079210.3905828,0.099193,1321,1.6125
176,1782079210.390618,0.099229,1329,1.6223
177,1782079210.3906431,0.099254,1320,1.6113
178,1782079210.3907192,0.099330,1326,1.6187
179,1782079210.3908072,0.099418,1331,1.6248
180,1782079210.3942342,0.102845,1332,1.6260
181,1782079210.394299,0.102910,1330,1.6235
182,1782079210.3949275,0.103538,1334,1.6284
183,1782079210.395006,0.103616,1331,1.6248
184,1782079210.39504,0.103651,1331,1.6248
185,1782079210.3956647,0.104275,1331,1.6248
186,1782079210.3957012,0.104312,1337,1.6321
187,1782079210.395724,0.104335,1335,1.6296
188,1782079210.395755,0.104366,1328,1.6211
189,1782079210.3957832,0.104394,1332,1.6260
190,1782079210.395837,0.104448,1327,1.6199
191,1782079210.3963478,0.104958,1328,1.6211
192,1782079210.3964014,0.105012,1321,1.6125
193,1782079210.3964262,0.105037,1322,1.6138
194,1782079210.3965173,0.105128,1320,1.6113
195,1782079210.3965476,0.105158,1327,1.6199
196,1782079210.3965852,0.105196,1323,1.6150
197,1782079210.3971255,0.105736,1322,1.6138
198,1782079210.3971782,0.105789,1318,1.6089
199,1782079210.397208,0.105819,1312,1.6016
200,1782079210.397265,0.105875,1316,1.6064
201,1782079210.3973205,0.105931,1318,1.6089
202,1782079210.3973773,0.105988,1311,1.6003
203,1782079210.3974075,0.106018,1308,1.5967
204,1782079210.3979652,0.106576,1310,1.5991
205,1782079210.3980095,0.106620,1312,1.6016
206,1782079210.398033,0.106643,1310,1.5991
207,1782079210.3980656,0.106676,1305,1.5930
208,1782079210.3981256,0.106736,1306,1.5942
209,1782079210.398239,0.106849,1305,1.5930
210,1782079210.3990357,0.107646,1300,1.5869
211,1782079210.3991616,0.107772,1301,1.5881
212,1782079210.399248,0.107858,1301,1.5881
213,1782079210.3993292,0.107940,1301,1.5881
214,1782079210.3993826,0.107993,1300,1.5869
215,1782079210.399523,0.108134,1303,1.5906
216,1782079210.4001915,0.108802,1302,1.5894
217,1782079210.4037824,0.112393,1306,1.5942
218,1782079210.4045944,0.113205,1302,1.5894
219,1782079210.404718,0.113328,1309,1.5979
220,1782079210.4048305,0.113441,1305,1.5930
221,1782079210.4049025,0.113513,1303,1.5906
222,1782079210.4049807,0.113591,1307,1.5955
223,1782079210.4050374,0.113648,1301,1.5881
224,1782079210.4051354,0.113746,1301,1.5881
225,1782079210.4052289,0.113839,1305,1.5930
226,1782079210.4053028,0.113913,1310,1.5991
227,1782079210.4054747,0.114085,1303,1.5906
228,1782079210.4077833,0.116394,1304,1.5918
229,1782079210.4079268,0.116537,1305,1.5930
230,1782079210.4080036,0.116614,1300,1.5869
231,1782079210.408067,0.116678,1302,1.5894
232,1782079210.408107,0.116718,1302,1.5894
233,1782079210.4085302,0.117141,1299,1.5857
234,1782079210.4094841,0.118095,1293,1.5784
235,1782079210.4095726,0.118183,1295,1.5808
236,1782079210.41003,0.118640,1299,1.5857
237,1782079210.4105566,0.119167,1302,1.5894
238,1782079210.4110267,0.119637,1299,1.5857
239,1782079210.4115543,0.120165,1301,1.5881
240,1782079210.412056,0.120667,1303,1.5906
241,1782079210.4125483,0.121159,1300,1.5869
242,1782079210.4130144,0.121625,1300,1.5869
243,1782079210.4135451,0.122156,1297,1.5833
244,1782079210.4140306,0.122641,1300,1.5869
245,1782079210.414547,0.123158,1303,1.5906
246,1782079210.4150329,0.123643,1303,1.5906
247,1782079210.4155462,0.124157,1299,1.5857
248,1782079210.4160366,0.124647,1300,1.5869
249,1782079210.4168158,0.125426,1297,1.5833
250,1782079210.4169989,0.125609,1300,1.5869
251,1782079210.4175596,0.126170,1299,1.5857
252,1782079210.4179883,0.126599,1299,1.5857
253,1782079210.4284801,0.137091,1291,1.5759
254,1782079210.4289577,0.137568,1296,1.5820
255,1782079210.4290314,0.137642,1292,1.5771
256,1782079210.4290967,0.137707,1297,1.5833
257,1782079210.4291265,0.137737,1299,1.5857
258,1782079210.4305522,0.139163,1301,1.5881
259,1782079210.4306326,0.139243,1297,1.5833
260,1782079210.4336255,0.142236,1300,1.5869
261,1782079210.4337125,0.142323,1301,1.5881
262,1782079210.4337764,0.142387,1299,1.5857
263,1782079210.4338038,0.142414,1295,1.5808
264,1782079210.436402,0.145013,1298,1.5845
265,1782079210.4370742,0.145685,1299,1.5857
266,1782079210.4371617,0.145772,1296,1.5820
267,1782079210.4372144,0.145825,1293,1.5784
268,1782079210.4377775,0.146388,1290,1.5747
269,1782079210.43785,0.146461,1288,1.5723
270,1782079210.437889,0.146500,1289,1.5735
271,1782079210.4384203,0.147031,1291,1.5759
272,1782079210.4386516,0.147262,1285,1.5686
273,1782079210.4392776,0.147888,1286,1.5698
274,1782079210.4393404,0.147951,1285,1.5686
275,1782079210.4398134,0.148424,1283,1.5662
276,1782079210.4399016,0.148512,1279,1.5613
277,1782079210.439967,0.148577,1278,1.5601
278,1782079210.4399984,0.148609,1277,1.5588
279,1782079210.440047,0.148658,1273,1.5540
280,1782079210.4406152,0.149226,1278,1.5601
281,1782079210.4413068,0.149917,1273,1.5540
282,1782079210.4414532,0.150064,1271,1.5515
283,1782079210.4415567,0.150167,1272,1.5527
284,1782079210.4416296,0.150240,1270,1.5503
285,1782079210.4416945,0.150305,1269,1.5491
286,1782079210.4417496,0.150360,1267,1.5466
287,1782079210.4423168,0.150927,1269,1.5491
288,1782079210.442376,0.150986,1264,1.5430
289,1782079210.442415,0.151026,1260,1.5381
290,1782079210.4424417,0.151052,1266,1.5454
291,1782079210.4456997,0.154310,1263,1.5417
292,1782079210.4457808,0.154391,1265,1.5442
293,1782079210.4458776,0.154488,1263,1.5417
294,1782079210.445928,0.154539,1263,1.5417
295,1782079210.4460168,0.154627,1267,1.5466
296,1782079210.4460554,0.154666,1266,1.5454
297,1782079210.4460833,0.154694,1268,1.5479
298,1782079210.4461193,0.154730,1268,1.5479
299,1782079210.4461453,0.154756,1271,1.5515
300,1782079210.446186,0.154797,1272,1.5527
301,1782079210.4462152,0.154826,1271,1.5515
302,1782079210.4462388,0.154849,1273,1.5540
303,1782079210.446275,0.154886,1274,1.5552
304,1782079210.4463131,0.154924,1272,1.5527
305,1782079210.4463398,0.154950,1273,1.5540
306,1782079210.4463634,0.154974,1280,1.5625
307,1782079210.446399,0.155010,1277,1.5588
308,1782079210.4464242,0.155035,1273,1.5540
309,1782079210.446471,0.155082,1279,1.5613
310,1782079210.448337,0.156948,1274,1.5552
311,1782079210.4484193,0.157030,1274,1.5552
312,1782079210.4484527,0.157063,1274,1.5552
313,1782079210.448524,0.157135,1269,1.5491
314,1782079210.4489892,0.157600,1273,1.5540
315,1782079210.4498563,0.158467,1268,1.5479
316,1782079210.4500906,0.158701,1268,1.5479
317,1782079210.4507601,0.159371,1256,1.5332
318,1782079210.451038,0.159648,1256,1.5332
319,1782079210.451579,0.160190,1261,1.5393
320,1782079210.452031,0.160641,1255,1.5320
321,1782079210.4525812,0.161192,1255,1.5320
322,1782079210.4531124,0.161723,1251,1.5271
323,1782079210.453525,0.162136,1253,1.5295
324,1782079210.4540653,0.162676,1248,1.5234
325,1782079210.454622,0.163233,1244,1.5186
326,1782079210.4551654,0.163776,1251,1.5271
327,1782079210.4555962,0.164207,1245,1.5198
328,1782079210.456091,0.164701,1247,1.5222
329,1782079210.4565353,0.165146,1248,1.5234
330,1782079210.4570386,0.165649,1246,1.5210
331,1782079210.4578726,0.166483,1245,1.5198
332,1782079210.458016,0.166626,1249,1.5247
333,1782079210.45856,0.167171,1247,1.5222
334,1782079210.4617598,0.170370,1250,1.5259
335,1782079210.466866,0.175477,1248,1.5234
336,1782079210.466915,0.175525,1250,1.5259
337,1782079210.4673738,0.175984,1250,1.5259
338,1782079210.467408,0.176018,1251,1.5271
339,1782079210.4678311,0.176442,1248,1.5234
340,1782079210.4678602,0.176471,1255,1.5320
341,1782079210.468271,0.176882,1249,1.5247
342,1782079210.4682972,0.176908,1257,1.5344
343,1782079210.4683173,0.176928,1256,1.5332
344,1782079210.4683368,0.176947,1255,1.5320
345,1782079210.4684472,0.177058,1258,1.5356
346,1782079210.469059,0.177670,1259,1.5369
347,1782079210.4695585,0.178169,1256,1.5332
348,1782079210.4695916,0.178202,1257,1.5344
349,1782079210.4696147,0.178225,1256,1.5332
350,1782079210.4728765,0.181487,1258,1.5356
351,1782079210.4729576,0.181568,1256,1.5332
352,1782079210.4730065,0.181617,1252,1.5283
353,1782079210.4730575,0.181668,1253,1.5295
354,1782079210.4731088,0.181719,1249,1.5247
355,1782079210.4731467,0.181757,1247,1.5222
356,1782079210.4731827,0.181793,1246,1.5210
357,1782079210.4732108,0.181821,1242,1.5161
358,1782079210.4732606,0.181871,1242,1.5161
359,1782079210.476252,0.184863,1239,1.5125
360,1782079210.4764152,0.185026,1238,1.5112
361,1782079210.4765341,0.185145,1234,1.5063
362,1782079210.477712,0.186322,1230,1.5015
363,1782079210.4778159,0.186426,1230,1.5015
364,1782079210.4779048,0.186515,1230,1.5015
365,1782079210.4779603,0.186571,1225,1.4954
366,1782079210.478023,0.186634,1230,1.5015
367,1782079210.4791796,0.187790,1226,1.4966
368,1782079210.4793184,0.187929,1223,1.4929
369,1782079210.4806402,0.189251,1220,1.4893
370,1782079210.4807684,0.189379,1221,1.4905
371,1782079210.480844,0.189455,1221,1.4905
372,1782079210.4809067,0.189517,1215,1.4832
373,1782079210.4818738,0.190484,1218,1.4868
374,1782079210.4819422,0.190553,1216,1.4844
375,1782079210.4820068,0.190617,1216,1.4844
376,1782079210.482066,0.190676,1213,1.4807
377,1782079210.4826849,0.191295,1213,1.4807
378,1782079210.4827673,0.191378,1213,1.4807
379,1782079210.4828198,0.191430,1216,1.4844
380,1782079210.4828587,0.191469,1216,1.4844
381,1782079210.4828968,0.191507,1215,1.4832
382,1782079210.4834838,0.192094,1221,1.4905
383,1782079210.4835553,0.192166,1225,1.4954
384,1782079210.484165,0.192775,1226,1.4966
385,1782079210.4888473,0.197458,1225,1.4954
386,1782079210.4889758,0.197586,1234,1.5063
387,1782079210.489022,0.197633,1234,1.5063
388,1782079210.4890707,0.197681,1236,1.5088
389,1782079210.4891107,0.197721,1235,1.5076
390,1782079210.4891536,0.197764,1230,1.5015
391,1782079210.4891908,0.197801,1233,1.5051
392,1782079210.4892323,0.197843,1234,1.5063
393,1782079210.4892666,0.197877,1229,1.5002
394,1782079210.4893384,0.197949,1230,1.5015
395,1782079210.4895778,0.198188,1225,1.4954
396,1782079210.4904325,0.199043,1221,1.4905
397,1782079210.4914534,0.200064,1223,1.4929
398,1782079210.4915118,0.200122,1214,1.4819
399,1782079210.49157,0.200181,1215,1.4832
400,1782079210.492089,0.200700,1211,1.4783
401,1782079210.4927688,0.201379,1215,1.4832
402,1782079210.4930646,0.201675,1207,1.4734
403,1782079210.4935937,0.202204,1205,1.4709
404,1782079210.494103,0.202713,1205,1.4709
405,1782079210.49459,0.203201,1205,1.4709
406,1782079210.4951072,0.203718,1202,1.4673
407,1782079210.4955926,0.204203,1202,1.4673
408,1782079210.49612,0.204731,1197,1.4612
409,1782079210.4965956,0.205206,1197,1.4612
410,1782079210.4971209,0.205731,1193,1.4563
411,1782079210.4975898,0.206200,1198,1.4624
412,1782079210.4981015,0.206712,1196,1.4600
413,1782079210.498657,0.207268,1197,1.4612
414,1782079210.4991205,0.207731,1192,1.4551
415,1782079210.4996533,0.208264,1193,1.4563
416,1782079210.5001078,0.208718,1195,1.4587
417,1782079210.5006347,0.209245,1190,1.4526
418,1782079210.501147,0.209758,1194,1.4575
419,1782079210.50178,0.210391,1192,1.4551
420,1782079210.5020878,0.210698,1196,1.4600
421,1782079210.5026143,0.211225,1198,1.4624
422,1782079210.51135,0.219960,1192,1.4551
423,1782079210.5114458,0.220056,1196,1.4600
424,1782079210.5119052,0.220516,1196,1.4600
425,1782079210.5119393,0.220550,1199,1.4636
426,1782079210.512344,0.220954,1198,1.4624
427,1782079210.5130272,0.221638,1201,1.4661
428,1782079210.5130944,0.221705,1203,1.4685
429,1782079210.513657,0.222268,1207,1.4734
430,1782079210.5141783,0.222789,1203,1.4685
431,1782079210.5142121,0.222823,1209,1.4758
432,1782079210.516438,0.225049,1212,1.4795
433,1782079210.5164747,0.225085,1214,1.4819
434,1782079210.5165112,0.225122,1212,1.4795
435,1782079210.5165393,0.225150,1212,1.4795
436,1782079210.5165684,0.225179,1213,1.4807
437,1782079210.5166068,0.225217,1212,1.4795
438,1782079210.5166504,0.225261,1214,1.4819
439,1782079210.5166774,0.225288,1210,1.4771
440,1782079210.5167084,0.225319,1214,1.4819
441,1782079210.5167348,0.225345,1208,1.4746
442,1782079210.5167732,0.225384,1210,1.4771
443,1782079210.5188007,0.227411,1207,1.4734
444,1782079210.5192258,0.227836,1204,1.4697
445,1782079210.519256,0.227867,1204,1.4697
446,1782079210.5192995,0.227910,1201,1.4661
447,1782079210.5193415,0.227952,1198,1.4624
448,1782079210.5197384,0.228349,1201,1.4661
449,1782079210.5197678,0.228378,1200,1.4648
450,1782079210.5198047,0.228415,1196,1.4600
451,1782079210.519845,0.228456,1195,1.4587
452,1782079210.5199196,0.228530,1199,1.4636
453,1782079210.5199444,0.228555,1194,1.4575
454,1782079210.5199878,0.228598,1195,1.4587
455,1782079210.5200186,0.228629,1198,1.4624
456,1782079210.5205233,0.229134,1192,1.4551
457,1782079210.5206206,0.229231,1195,1.4587
458,1782079210.52133,0.229941,1192,1.4551
459,1782079210.5220294,0.230640,1193,1.4563
460,1782079210.522143,0.230753,1194,1.4575
461,1782079210.5226307,0.231241,1196,1.4600
462,1782079210.5232246,0.231835,1194,1.4575
463,1782079210.5237775,0.232388,1196,1.4600
464,1782079210.526482,0.235093,1190,1.4526
465,1782079210.5265398,0.235150,1196,1.4600
466,1782079210.5265849,0.235195,1199,1.4636
467,1782079210.5266364,0.235247,1195,1.4587
468,1782079210.5266697,0.235280,1201,1.4661
469,1782079210.5266957,0.235306,1193,1.4563
470,1782079210.527584,0.236195,1199,1.4636
471,1782079210.5285857,0.237196,1195,1.4587
472,1782079210.5286412,0.237252,1194,1.4575
473,1782079210.5286865,0.237297,1191,1.4539
474,1782079210.5291295,0.237740,1191,1.4539
475,1782079210.5296972,0.238308,1192,1.4551
476,1782079210.530148,0.238759,1191,1.4539
477,1782079210.5306354,0.239246,1191,1.4539
478,1782079210.53116,0.239771,1185,1.4465
479,1782079210.5316637,0.240274,1187,1.4490
480,1782079210.5321472,0.240758,1185,1.4465
481,1782079210.532682,0.241292,1181,1.4417
482,1782079210.5331645,0.241775,1182,1.4429
483,1782079210.5336614,0.242272,1181,1.4417
484,1782079210.5341418,0.242752,1182,1.4429
485,1782079210.5346508,0.243261,1181,1.4417
486,1782079210.5351503,0.243761,1173,1.4319
487,1782079210.53565,0.244261,1175,1.4343
488,1782079210.5361514,0.244762,1175,1.4343
489,1782079210.5370474,0.245658,1179,1.4392
490,1782079210.5371284,0.245739,1175,1.4343
491,1782079210.5376506,0.246261,1177,1.4368
492,1782079210.538151,0.246762,1177,1.4368
493,1782079210.5389385,0.247549,1179,1.4392
494,1782079210.5398858,0.248496,1182,1.4429
495,1782079210.5412576,0.249868,1184,1.4453
496,1782079210.5472336,0.255844,1187,1.4490
497,1782079210.549213,0.257823,1176,1.4355
498,1782079210.549276,0.257887,1180,1.4404
499,1782079210.552153,0.260764,1180,1.4404
500,1782079210.5522103,0.260821,1182,1.4429
501,1782079210.5522466,0.260857,1189,1.4514
502,1782079210.5522788,0.260889,1183,1.4441
503,1782079210.552323,0.260934,1185,1.4465
504,1782079210.5523539,0.260964,1182,1.4429
505,1782079210.5523798,0.260990,1180,1.4404
506,1782079210.55241,0.261020,1178,1.4380
507,1782079210.5524352,0.261046,1179,1.4392
508,1782079210.5524566,0.261067,1176,1.4355
509,1782079210.5525098,0.261120,1175,1.4343
510,1782079210.5552595,0.263870,1174,1.4331
511,1782079210.5553184,0.263929,1170,1.4282
512,1782079210.556017,0.264627,1166,1.4233
513,1782079210.5560517,0.264662,1166,1.4233
514,1782079210.556105,0.264715,1171,1.4294
515,1782079210.5561395,0.264750,1172,1.4307
516,1782079210.5561814,0.264792,1167,1.4246
517,1782079210.5566452,0.265256,1169,1.4270
518,1782079210.5566852,0.265296,1168,1.4258
519,1782079210.5567102,0.265321,1167,1.4246
520,1782079210.5567517,0.265362,1164,1.4209
521,1782079210.556782,0.265393,1169,1.4270
522,1782079210.5568104,0.265421,1165,1.4221
523,1782079210.5568354,0.265446,1169,1.4270
524,1782079210.5572531,0.265864,1168,1.4258
525,1782079210.5572834,0.265894,1168,1.4258
526,1782079210.5573165,0.265927,1163,1.4197
527,1782079210.5573409,0.265951,1166,1.4233
528,1782079210.5573769,0.265987,1164,1.4209
529,1782079210.557413,0.266024,1169,1.4270
530,1782079210.5574384,0.266049,1169,1.4270
531,1782079210.5578406,0.266451,1170,1.4282
532,1782079210.5582912,0.266902,1169,1.4270
533,1782079210.558775,0.267385,1172,1.4307
534,1782079210.5593174,0.267928,1174,1.4331
535,1782079210.5598195,0.268430,1175,1.4343
536,1782079210.5624938,0.271104,1171,1.4294
537,1782079210.5625403,0.271151,1173,1.4319
538,1782079210.5625827,0.271193,1171,1.4294
539,1782079210.5626206,0.271231,1174,1.4331
540,1782079210.5626485,0.271259,1172,1.4307
541,1782079210.5626857,0.271296,1176,1.4355
542,1782079210.5636022,0.272213,1173,1.4319
543,1782079210.5645099,0.273120,1176,1.4355
544,1782079210.5645554,0.273166,1178,1.4380
545,1782079210.5646815,0.273292,1181,1.4417
546,1782079210.5651958,0.273806,1176,1.4355
547,1782079210.565712,0.274323,1179,1.4392
548,1782079210.5661929,0.274803,1175,1.4343
549,1782079210.5667279,0.275338,1178,1.4380
550,1782079210.5672061,0.275817,1182,1.4429
551,1782079210.5677273,0.276338,1180,1.4404
552,1782079210.568214,0.276824,1179,1.4392
553,1782079210.5687428,0.277353,1174,1.4331
554,1782079210.5692217,0.277832,1176,1.4355
555,1782079210.569851,0.278461,1173,1.4319
556,1782079210.570273,0.278883,1170,1.4282
557,1782079210.5708108,0.279421,1171,1.4294
558,1782079210.57126,0.279871,1169,1.4270
559,1782079210.5718203,0.280431,1167,1.4246
560,1782079210.5722582,0.280869,1170,1.4282
561,1782079210.5728092,0.281420,1166,1.4233
562,1782079210.5737295,0.282340,1164,1.4209
563,1782079210.5737853,0.282396,1165,1.4221
564,1782079210.5743396,0.282950,1164,1.4209
565,1782079210.5747612,0.283372,1164,1.4209
566,1782079210.58235,0.290961,1159,1.4148
567,1782079210.5824394,0.291050,1162,1.4185
568,1782079210.5829008,0.291511,1158,1.4136
569,1782079210.5833035,0.291914,1162,1.4185
570,1782079210.583339,0.291950,1158,1.4136
571,1782079210.5837839,0.292394,1157,1.4124
572,1782079210.5842373,0.292848,1156,1.4111
573,1782079210.5842745,0.292885,1160,1.4160
574,1782079210.584689,0.293299,1160,1.4160
575,1782079210.584717,0.293328,1160,1.4160
576,1782079210.5872753,0.295886,1163,1.4197
577,1782079210.587405,0.296016,1158,1.4136
578,1782079210.5875018,0.296112,1162,1.4185
579,1782079210.5875447,0.296155,1161,1.4172
580,1782079210.587602,0.296212,1161,1.4172
581,1782079210.5876434,0.296254,1164,1.4209
582,1782079210.5876803,0.296291,1164,1.4209
583,1782079210.587749,0.296360,1161,1.4172
584,1782079210.5899796,0.298590,1160,1.4160
585,1782079210.5900426,0.298653,1154,1.4087
586,1782079210.59071,0.299320,1158,1.4136
587,1782079210.5907567,0.299367,1162,1.4185
588,1782079210.5908048,0.299415,1161,1.4172
589,1782079210.5908315,0.299442,1158,1.4136
590,1782079210.5908709,0.299481,1163,1.4197
591,1782079210.5908973,0.299508,1162,1.4185
592,1782079210.591451,0.300061,1163,1.4197
593,1782079210.5914764,0.300087,1168,1.4258
594,1782079210.5915163,0.300127,1164,1.4209
595,1782079210.5915475,0.300158,1166,1.4233
596,1782079210.591572,0.300183,1164,1.4209
597,1782079210.59203,0.300641,1161,1.4172
598,1782079210.5920594,0.300670,1157,1.4124
599,1782079210.5920954,0.300706,1162,1.4185
600,1782079210.5926082,0.301219,1164,1.4209
601,1782079210.5930917,0.301702,1162,1.4185
602,1782079210.5936055,0.302216,1156,1.4111
603,1782079210.5941072,0.302718,1158,1.4136
604,1782079210.594831,0.303442,1160,1.4160
605,1782079210.5949128,0.303523,1157,1.4124
606,1782079210.598141,0.306751,1153,1.4075
607,1782079210.5982172,0.306828,1154,1.4087
608,1782079210.5982697,0.306880,1157,1.4124
609,1782079210.5983136,0.306924,1152,1.4062
610,1782079210.5983448,0.306955,1155,1.4099
611,1782079210.5983715,0.306982,1153,1.4075
612,1782079210.5984135,0.307024,1153,1.4075
613,1782079210.600331,0.308942,1152,1.4062
614,1782079210.600396,0.309006,1149,1.4026
615,1782079210.6004286,0.309039,1153,1.4075
616,1782079210.6004615,0.309072,1153,1.4075
617,1782079210.6007938,0.309404,1154,1.4087
618,1782079210.6013432,0.309954,1152,1.4062
619,1782079210.6019948,0.310605,1151,1.4050
620,1782079210.602305,0.310915,1155,1.4099
621,1782079210.6027834,0.311394,1156,1.4111
622,1782079210.603269,0.311880,1161,1.4172
623,1782079210.603757,0.312367,1157,1.4124
624,1782079210.6042664,0.312877,1162,1.4185
625,1782079210.604838,0.313448,1160,1.4160
626,1782079210.605354,0.313965,1167,1.4246
627,1782079210.6057758,0.314386,1169,1.4270
628,1782079210.6062691,0.314880,1169,1.4270
629,1782079210.606789,0.315400,1173,1.4319
630,1782079210.607292,0.315902,1171,1.4294
631,1782079210.607785,0.316396,1175,1.4343
632,1782079210.6082826,0.316893,1174,1.4331
633,1782079210.6087832,0.317394,1173,1.4319
634,1782079210.6093109,0.317921,1174,1.4331
635,1782079210.6103256,0.318936,1176,1.4355
636,1782079210.61038,0.318990,1170,1.4282
637,1782079210.6107922,0.319403,1173,1.4319
638,1782079210.6112907,0.319901,1171,1.4294
639,1782079210.6122677,0.320878,1171,1.4294
640,1782079210.6186786,0.327289,1166,1.4233
641,1782079210.6207297,0.329340,1170,1.4282
642,1782079210.6225774,0.331188,1173,1.4319
643,1782079210.6233706,0.331981,1166,1.4233
644,1782079210.6251056,0.333716,1171,1.4294
645,1782079210.6257348,0.334345,1167,1.4246
646,1782079210.628828,0.337439,1166,1.4233
647,1782079210.6288896,0.337500,1163,1.4197
648,1782079210.6289515,0.337562,1163,1.4197
649,1782079210.6321511,0.340762,1165,1.4221
650,1782079210.6327693,0.341380,1163,1.4197
651,1782079210.6328926,0.341503,1162,1.4185
652,1782079210.633002,0.341613,1169,1.4270
653,1782079210.633071,0.341681,1162,1.4185
654,1782079210.633149,0.341759,1157,1.4124
655,1782079210.6339622,0.342573,1158,1.4136
656,1782079210.6340446,0.342655,1158,1.4136
657,1782079210.634117,0.342727,1154,1.4087
658,1782079210.6341906,0.342801,1155,1.4099
659,1782079210.6342313,0.342842,1152,1.4062
660,1782079210.6355057,0.344116,1153,1.4075
661,1782079210.6355982,0.344209,1154,1.4087
662,1782079210.6357152,0.344326,1153,1.4075
663,1782079210.6357636,0.344374,1159,1.4148
664,1782079210.6358047,0.344415,1155,1.4099
665,1782079210.6358607,0.344471,1160,1.4160
666,1782079210.6359031,0.344514,1161,1.4172
667,1782079210.6359344,0.344545,1161,1.4172
668,1782079210.6367376,0.345348,1168,1.4258
669,1782079210.6368258,0.345436,1166,1.4233
670,1782079210.6368723,0.345483,1169,1.4270
671,1782079210.6369367,0.345547,1167,1.4246
672,1782079210.6369982,0.345609,1174,1.4331
673,1782079210.6378603,0.346471,1169,1.4270
674,1782079210.63798,0.346591,1170,1.4282
675,1782079210.6380708,0.346681,1168,1.4258
676,1782079210.638103,0.346714,1170,1.4282
677,1782079210.6381574,0.346768,1169,1.4270
678,1782079210.6381993,0.346810,1168,1.4258
679,1782079210.638225,0.346836,1165,1.4221
680,1782079210.6382644,0.346875,1168,1.4258
681,1782079210.6382928,0.346903,1166,1.4233
682,1782079210.638319,0.346930,1163,1.4197
683,1782079210.6389542,0.347565,1158,1.4136
684,1782079210.6389806,0.347591,1160,1.4160
685,1782079210.6390283,0.347639,1162,1.4185
686,1782079210.639069,0.347680,1157,1.4124
687,1782079210.6390977,0.347708,1154,1.4087
688,1782079210.6391275,0.347738,1154,1.4087
689,1782079210.6391516,0.347762,1156,1.4111
690,1782079210.6396964,0.348307,1150,1.4038
691,1782079210.6397252,0.348336,1151,1.4050
692,1782079210.6397648,0.348375,1156,1.4111
693,1782079210.6397896,0.348400,1156,1.4111
694,1782079210.639848,0.348459,1154,1.4087
695,1782079210.6398716,0.348482,1152,1.4062
696,1782079210.6432536,0.351864,1157,1.4124
697,1782079210.6432886,0.351899,1155,1.4099
698,1782079210.6433582,0.351969,1158,1.4136
699,1782079210.643387,0.351998,1158,1.4136
700,1782079210.6434388,0.352049,1161,1.4172
701,1782079210.6434662,0.352077,1164,1.4209
702,1782079210.643497,0.352108,1162,1.4185
703,1782079210.6438558,0.352466,1170,1.4282
704,1782079210.644739,0.353349,1167,1.4246
705,1782079210.6460545,0.354665,1170,1.4282
706,1782079210.646098,0.354708,1170,1.4282
707,1782079210.6461453,0.354756,1177,1.4368
708,1782079210.6463401,0.354951,1178,1.4380
709,1782079210.646861,0.355472,1182,1.4429
710,1782079210.6475337,0.356144,1182,1.4429
711,1782079210.6478746,0.356485,1184,1.4453
712,1782079210.648347,0.356957,1180,1.4404
713,1782079210.6488473,0.357458,1187,1.4490
714,1782079210.6493447,0.357955,1178,1.4380
715,1782079210.6498573,0.358468,1183,1.4441
716,1782079210.6503708,0.358981,1177,1.4368
717,1782079210.650862,0.359473,1179,1.4392
718,1782079210.6513476,0.359958,1177,1.4368
719,1782079210.6518703,0.360481,1179,1.4392
720,1782079210.652355,0.360965,1167,1.4246
721,1782079210.6528559,0.361466,1163,1.4197
722,1782079210.6533587,0.361969,1159,1.4148
723,1782079210.653854,0.362464,1162,1.4185
724,1782079210.6543736,0.362984,1154,1.4087
725,1782079210.654876,0.363487,1155,1.4099
726,1782079210.6556742,0.364285,1154,1.4087
727,1782079210.6558378,0.364448,1152,1.4062
728,1782079210.65639,0.365000,1147,1.4001
729,1782079210.6596658,0.368276,1151,1.4050
730,1782079210.6597624,0.368373,1155,1.4099
731,1782079210.659792,0.368402,1153,1.4075
732,1782079210.6640947,0.372705,1152,1.4062
733,1782079210.6650121,0.373623,1155,1.4099
734,1782079210.6650465,0.373657,1155,1.4099
735,1782079210.6655607,0.374171,1158,1.4136
736,1782079210.6655884,0.374199,1157,1.4124
737,1782079210.6661036,0.374714,1164,1.4209
738,1782079210.6661363,0.374747,1166,1.4233
739,1782079210.6665823,0.375193,1167,1.4246
740,1782079210.6666162,0.375227,1171,1.4294
741,1782079210.667036,0.375647,1172,1.4307
742,1782079210.6674533,0.376064,1176,1.4355
743,1782079210.6674824,0.376093,1182,1.4429
744,1782079210.669906,0.378516,1175,1.4343
745,1782079210.6699853,0.378596,1183,1.4441
746,1782079210.6700492,0.378660,1179,1.4392
747,1782079210.6700807,0.378691,1188,1.4502
748,1782079210.6701224,0.378733,1180,1.4404
749,1782079210.6702814,0.378892,1191,1.4539
750,1782079210.670343,0.378953,1183,1.4441
751,1782079210.6743164,0.382927,1189,1.4514
752,1782079210.6743853,0.382996,1184,1.4453
753,1782079210.6749432,0.383554,1189,1.4514
754,1782079210.675003,0.383614,1183,1.4441
755,1782079210.6750338,0.383644,1181,1.4417
756,1782079210.6750643,0.383675,1187,1.4490
757,1782079210.6756084,0.384219,1187,1.4490
758,1782079210.6756833,0.384294,1181,1.4417
759,1782079210.6757176,0.384328,1180,1.4404
760,1782079210.6762128,0.384823,1179,1.4392
761,1782079210.6762755,0.384886,1185,1.4465
762,1782079210.6763053,0.384916,1179,1.4392
763,1782079210.6768408,0.385451,1184,1.4453
764,1782079210.6769414,0.385552,1178,1.4380
765,1782079210.6769822,0.385593,1174,1.4331
766,1782079210.6770234,0.385634,1175,1.4343
767,1782079210.6775503,0.386161,1178,1.4380
768,1782079210.6776302,0.386241,1174,1.4331
769,1782079210.6776693,0.386280,1174,1.4331
770,1782079210.677696,0.386307,1175,1.4343
771,1782079210.6781774,0.386788,1177,1.4368
772,1782079210.6787758,0.387386,1170,1.4282
773,1782079210.681772,0.390383,1176,1.4355
774,1782079210.6818507,0.390461,1174,1.4331
775,1782079210.6819065,0.390517,1173,1.4319
776,1782079210.6819584,0.390569,1174,1.4331
777,1782079210.6819854,0.390596,1170,1.4282
778,1782079210.682019,0.390630,1173,1.4319
779,1782079210.6820433,0.390654,1178,1.4380
780,1782079210.6831622,0.391773,1179,1.4392
781,1782079210.684697,0.393307,1176,1.4355
782,1782079210.6847615,0.393372,1180,1.4404
783,1782079210.6848023,0.393413,1179,1.4392
784,1782079210.684832,0.393443,1186,1.4478
785,1782079210.6849155,0.393526,1187,1.4490
786,1782079210.6860714,0.394682,1193,1.4563
787,1782079210.6861477,0.394758,1191,1.4539
788,1782079210.6867414,0.395352,1193,1.4563
789,1782079210.6869602,0.395571,1194,1.4575
790,1782079210.6875687,0.396179,1192,1.4551
791,1782079210.6879473,0.396558,1196,1.4600
792,1782079210.6884673,0.397078,1197,1.4612
793,1782079210.6889267,0.397537,1192,1.4551
794,1782079210.6894813,0.398092,1189,1.4514
795,1782079210.6899304,0.398541,1195,1.4587
796,1782079210.6904795,0.399090,1185,1.4465
797,1782079210.6909475,0.399558,1188,1.4502
798,1782079210.6914775,0.400088,1182,1.4429
799,1782079210.6919272,0.400538,1186,1.4478
800,1782079210.6924822,0.401093,1183,1.4441
801,1782079210.6929326,0.401543,1182,1.4429
802,1782079210.6934617,0.402072,1176,1.4355
803,1782079210.6939626,0.402573,1182,1.4429
804,1782079210.694633,0.403244,1184,1.4453
805,1782079210.694914,0.403525,1183,1.4441
806,1782079210.6954865,0.404097,1174,1.4331
807,1782079210.6998086,0.408419,1184,1.4453
808,1782079210.7036455,0.412256,1180,1.4404
809,1782079210.7059064,0.414517,1186,1.4478
810,1782079210.7064335,0.415044,1177,1.4368
811,1782079210.7064717,0.415082,1186,1.4478
812,1782079210.7069042,0.415515,1182,1.4429
813,1782079210.7069323,0.415543,1185,1.4465
814,1782079210.7069602,0.415571,1181,1.4417
815,1782079210.7073822,0.415993,1188,1.4502
816,1782079210.7074184,0.416029,1183,1.4441
817,1782079210.7074432,0.416054,1189,1.4514
818,1782079210.7078693,0.416480,1186,1.4478
819,1782079210.7078965,0.416507,1188,1.4502
820,1782079210.7083304,0.416941,1196,1.4600
821,1782079210.7083714,0.416982,1196,1.4600
822,1782079210.7107463,0.419357,1199,1.4636
823,1782079210.7107894,0.419400,1201,1.4661
824,1782079210.710835,0.419446,1198,1.4624
825,1782079210.7108636,0.419474,1204,1.4697
826,1782079210.710888,0.419498,1194,1.4575
827,1782079210.71092,0.419531,1206,1.4722
828,1782079210.7109437,0.419554,1204,1.4697
829,1782079210.7109675,0.419578,1205,1.4709
830,1782079210.7109988,0.419609,1203,1.4685
831,1782079210.7110226,0.419633,1204,1.4697
832,1782079210.7110667,0.419677,1202,1.4673
833,1782079210.7110977,0.419708,1203,1.4685
834,1782079210.7111225,0.419733,1202,1.4673
835,1782079210.711166,0.419776,1204,1.4697
836,1782079210.711196,0.419806,1194,1.4575
837,1782079210.7112222,0.419833,1197,1.4612
838,1782079210.7133703,0.421981,1191,1.4539
839,1782079210.7134144,0.422025,1194,1.4575
840,1782079210.713862,0.422472,1186,1.4478
841,1782079210.7138898,0.422500,1191,1.4539
842,1782079210.7139194,0.422530,1188,1.4502
843,1782079210.7139919,0.422602,1191,1.4539
844,1782079210.7146995,0.423310,1191,1.4539
845,1782079210.715293,0.423903,1184,1.4453
846,1782079210.715873,0.424484,1184,1.4453
847,1782079210.715977,0.424587,1185,1.4465
848,1782079210.716551,0.425162,1187,1.4490
849,1782079210.7170596,0.425670,1187,1.4490
850,1782079210.7176592,0.426270,1187,1.4490
851,1782079210.7182145,0.426825,1190,1.4526
852,1782079210.7185085,0.427119,1188,1.4502
853,1782079210.721955,0.430566,1190,1.4526
854,1782079210.722029,0.430640,1195,1.4587
855,1782079210.722076,0.430686,1198,1.4624
856,1782079210.7221193,0.430730,1200,1.4648
857,1782079210.722167,0.430778,1206,1.4722
858,1782079210.7222,0.430810,1203,1.4685
859,1782079210.7222235,0.430834,1205,1.4709
860,1782079210.7225003,0.431111,1207,1.4734
861,1782079210.7232356,0.431846,1208,1.4746
862,1782079210.724395,0.433006,1212,1.4795
863,1782079210.724427,0.433038,1216,1.4844
864,1782079210.72448,0.433090,1211,1.4783
865,1782079210.7249653,0.433576,1220,1.4893
866,1782079210.725552,0.434163,1217,1.4856
867,1782079210.7261674,0.434778,1218,1.4868
868,1782079210.7265358,0.435146,1219,1.4880
869,1782079210.7270782,0.435689,1220,1.4893
870,1782079210.7275546,0.436165,1218,1.4868
871,1782079210.7280955,0.436706,1219,1.4880
872,1782079210.7285788,0.437189,1214,1.4819
873,1782079210.7290957,0.437706,1213,1.4807
874,1782079210.729576,0.438187,1217,1.4856
875,1782079210.7301073,0.438718,1214,1.4819
876,1782079210.7305822,0.439193,1216,1.4844
877,1782079210.7310748,0.439685,1212,1.4795
878,1782079210.731563,0.440174,1211,1.4783
879,1782079210.732005,0.440615,1208,1.4746
880,1782079210.732507,0.441118,1204,1.4697
881,1782079210.733046,0.441657,1211,1.4783
882,1782079210.7335253,0.442136,1207,1.4734
883,1782079210.7340167,0.442627,1205,1.4709
884,1782079210.7348545,0.443465,1209,1.4758
885,1782079210.7350626,0.443673,1204,1.4697
886,1782079210.735529,0.444139,1201,1.4661
887,1782079210.7360353,0.444646,1203,1.4685
888,1782079210.7473483,0.455959,1205,1.4709
889,1782079210.7480576,0.456668,1204,1.4697
890,1782079210.7486207,0.457231,1205,1.4709
891,1782079210.7504516,0.459062,1210,1.4771
892,1782079210.7511582,0.459769,1209,1.4758
893,1782079210.7512074,0.459818,1212,1.4795
894,1782079210.7552984,0.463909,1213,1.4807
895,1782079210.755409,0.464020,1214,1.4819
896,1782079210.7554598,0.464070,1221,1.4905
897,1782079210.7555287,0.464139,1219,1.4880
898,1782079210.755569,0.464180,1218,1.4868
899,1782079210.755606,0.464216,1222,1.4917
900,1782079210.7556636,0.464274,1220,1.4893
901,1782079210.7557027,0.464313,1229,1.5002
902,1782079210.7557359,0.464346,1224,1.4941
903,1782079210.755799,0.464410,1223,1.4929
904,1782079210.755853,0.464463,1226,1.4966
905,1782079210.755888,0.464499,1229,1.5002
906,1782079210.7559414,0.464552,1230,1.5015
907,1782079210.7559848,0.464595,1230,1.5015
908,1782079210.7560203,0.464631,1230,1.5015
909,1782079210.7560556,0.464666,1230,1.5015
910,1782079210.7560902,0.464701,1231,1.5027
911,1782079210.756145,0.464756,1235,1.5076
912,1782079210.7561824,0.464793,1234,1.5063
913,1782079210.759215,0.467826,1232,1.5039
914,1782079210.7592778,0.467888,1233,1.5051
915,1782079210.7593188,0.467929,1232,1.5039
916,1782079210.7598908,0.468501,1229,1.5002
917,1782079210.7599268,0.468537,1227,1.4978
918,1782079210.7599795,0.468590,1224,1.4941
919,1782079210.760038,0.468648,1224,1.4941
920,1782079210.7600894,0.468700,1226,1.4966
921,1782079210.7601774,0.468788,1221,1.4905
922,1782079210.760753,0.469363,1225,1.4954
923,1782079210.7608078,0.469418,1213,1.4807
924,1782079210.7608385,0.469449,1215,1.4832
925,1782079210.760891,0.469501,1216,1.4844
926,1782079210.7609468,0.469557,1218,1.4868
927,1782079210.760982,0.469593,1212,1.4795
928,1782079210.7610116,0.469622,1216,1.4844
929,1782079210.7610588,0.469669,1216,1.4844
930,1782079210.7610943,0.469705,1215,1.4832
931,1782079210.761873,0.470484,1216,1.4844
932,1782079210.7619386,0.470549,1221,1.4905
933,1782079210.76198,0.470591,1218,1.4868
934,1782079210.7620234,0.470634,1224,1.4941
935,1782079210.7620738,0.470684,1222,1.4917
936,1782079210.7621167,0.470727,1230,1.5015
937,1782079210.762158,0.470768,1231,1.5027
938,1782079210.7622201,0.470831,1233,1.5051
939,1782079210.7622702,0.470881,1237,1.5100
940,1782079210.7628806,0.471491,1234,1.5063
941,1782079210.7634642,0.472075,1240,1.5137
942,1782079210.7635403,0.472151,1242,1.5161
943,1782079210.7640717,0.472682,1238,1.5112
944,1782079210.7646275,0.473238,1243,1.5173
945,1782079210.7651892,0.473800,1241,1.5149
946,1782079210.7691784,0.477789,1242,1.5161
947,1782079210.7692683,0.477879,1248,1.5234
948,1782079210.7693188,0.477929,1243,1.5173
949,1782079210.7693455,0.477956,1250,1.5259
950,1782079210.769405,0.478015,1246,1.5210
951,1782079210.769435,0.478045,1244,1.5186
952,1782079210.7694738,0.478084,1248,1.5234
953,1782079210.7695262,0.478137,1246,1.5210
954,1782079210.7695825,0.478193,1243,1.5173
955,1782079210.771141,0.479752,1243,1.5173
956,1782079210.7726934,0.481304,1242,1.5161
957,1782079210.7727714,0.481382,1238,1.5112
958,1782079210.7728188,0.481429,1240,1.5137
959,1782079210.7728667,0.481477,1240,1.5137
960,1782079210.7728972,0.481508,1233,1.5051
961,1782079210.7731154,0.481726,1233,1.5051
962,1782079210.7736216,0.482232,1234,1.5063
963,1782079210.7745292,0.483140,1236,1.5088
964,1782079210.7746267,0.483237,1234,1.5063
965,1782079210.7752721,0.483883,1230,1.5015
966,1782079210.7756212,0.484232,1231,1.5027
967,1782079210.7761395,0.484750,1234,1.5063
968,1782079210.776615,0.485225,1237,1.5100
969,1782079210.7771814,0.485792,1232,1.5039
970,1782079210.7776089,0.486219,1229,1.5002
971,1782079210.7781553,0.486766,1227,1.4978
972,1782079210.778624,0.487235,1231,1.5027
973,1782079210.7791858,0.487796,1235,1.5076
974,1782079210.7796235,0.488234,1236,1.5088
975,1782079210.7801251,0.488736,1242,1.5161
976,1782079210.7806387,0.489249,1244,1.5186
977,1782079210.7811656,0.489776,1248,1.5234
978,1782079210.781658,0.490268,1252,1.5283
979,1782079210.7821534,0.490764,1261,1.5393
980,1782079210.7826588,0.491269,1263,1.5417
981,1782079210.7831585,0.491769,1267,1.5466
982,1782079210.783658,0.492269,1264,1.5430
983,1782079210.7841294,0.492740,1274,1.5552
984,1782079210.7845962,0.493207,1279,1.5613
985,1782079210.7854488,0.494059,1278,1.5601
986,1782079210.7856932,0.494304,1280,1.5625
987,1782079210.7861128,0.494723,1279,1.5613
988,1782079210.7866373,0.495248,1282,1.5649
989,1782079210.7902405,0.498851,1286,1.5698
990,1782079210.7903464,0.498957,1284,1.5674
991,1782079210.7966702,0.505281,1284,1.5674
992,1782079210.7978716,0.506482,1284,1.5674
993,1782079210.798867,0.507478,1290,1.5747
994,1782079210.7998683,0.508479,1291,1.5759
995,1782079210.8025613,0.511172,1290,1.5747
996,1782079210.802652,0.511262,1285,1.5686
997,1782079210.8027127,0.511323,1282,1.5649
998,1782079210.8055637,0.514174,1285,1.5686
999,1782079210.8056278,0.514238,1281,1.5637
1000,1782079210.806156,0.514766,1274,1.5552
1001,1782079210.8062322,0.514843,1274,1.5552
1002,1782079210.8062658,0.514876,1276,1.5576
1003,1782079210.8063288,0.514939,1272,1.5527
1004,1782079210.8063583,0.514969,1273,1.5540
1005,1782079210.806401,0.515012,1272,1.5527
1006,1782079210.8064284,0.515039,1276,1.5576
1007,1782079210.807004,0.515615,1272,1.5527
1008,1782079210.8070443,0.515655,1274,1.5552
1009,1782079210.8070683,0.515679,1276,1.5576
1010,1782079210.807094,0.515705,1270,1.5503
1011,1782079210.8071334,0.515744,1275,1.5564
1012,1782079210.8071544,0.515765,1281,1.5637
1013,1782079210.8071814,0.515792,1282,1.5649
1014,1782079210.8072197,0.515830,1273,1.5540
1015,1782079210.8072574,0.515868,1279,1.5613
1016,1782079210.8072834,0.515894,1284,1.5674
1017,1782079210.8078163,0.516427,1284,1.5674
1018,1782079210.8078592,0.516470,1286,1.5698
1019,1782079210.8079038,0.516514,1285,1.5686
1020,1782079210.8079305,0.516541,1293,1.5784
1021,1782079210.80797,0.516581,1289,1.5735
1022,1782079210.808006,0.516617,1295,1.5808
1023,1782079210.8085055,0.517116,1295,1.5808
1024,1782079210.808533,0.517143,1298,1.5845
1025,1782079210.808575,0.517185,1298,1.5845
1026,1782079210.8085995,0.517210,1296,1.5820
1027,1782079210.8086212,0.517232,1303,1.5906
1028,1782079210.808655,0.517266,1299,1.5857
1029,1782079210.808679,0.517290,1304,1.5918
1030,1782079210.8087094,0.517320,1304,1.5918
1031,1782079210.8087313,0.517342,1301,1.5881
1032,1782079210.808755,0.517365,1297,1.5833
1033,1782079210.8096087,0.518219,1299,1.5857
1034,1782079210.8097036,0.518314,1293,1.5784
1035,1782079210.8105068,0.519117,1296,1.5820
1036,1782079210.8111176,0.519728,1297,1.5833
1037,1782079210.8112078,0.519818,1297,1.5833
1038,1782079210.814721,0.523332,1299,1.5857
1039,1782079210.8148162,0.523427,1295,1.5808
1040,1782079210.8148646,0.523475,1291,1.5759
1041,1782079210.8148966,0.523507,1291,1.5759
1042,1782079210.8149443,0.523555,1294,1.5796
1043,1782079210.814979,0.523590,1289,1.5735
1044,1782079210.8150058,0.523616,1289,1.5735
1045,1782079210.8151946,0.523805,1292,1.5771
1046,1782079210.8172426,0.525853,1294,1.5796
1047,1782079210.8173332,0.525944,1290,1.5747
1048,1782079210.8173745,0.525985,1296,1.5820
1049,1782079210.8174212,0.526032,1296,1.5820
1050,1782079210.8177176,0.526328,1301,1.5881
1051,1782079210.8184738,0.527084,1300,1.5869
1052,1782079210.8187044,0.527315,1297,1.5833
1053,1782079210.8192332,0.527844,1299,1.5857
1054,1782079210.8197503,0.528361,1299,1.5857
1055,1782079210.8201747,0.528785,1304,1.5918
1056,1782079210.8206658,0.529276,1305,1.5930
1057,1782079210.821186,0.529797,1305,1.5930
1058,1782079210.8216891,0.530300,1312,1.6016
1059,1782079210.8222568,0.530867,1307,1.5955
1060,1782079210.82275,0.531361,1310,1.5991
1061,1782079210.823264,0.531874,1312,1.6016
1062,1782079210.823765,0.532376,1313,1.6028
1063,1782079210.8242404,0.532851,1312,1.6016
1064,1782079210.824699,0.533309,1315,1.6052
1065,1782079210.8251956,0.533806,1321,1.6125
1066,1782079210.8256917,0.534302,1319,1.6101
1067,1782079210.8262,0.534811,1321,1.6125
1068,1782079210.82668,0.535290,1323,1.6150
1069,1782079210.827378,0.535989,1325,1.6174
1070,1782079210.8277068,0.536317,1327,1.6199
1071,1782079210.8282661,0.536877,1317,1.6077
1072,1782079210.8287036,0.537314,1318,1.6089
1073,1782079210.830041,0.538651,1323,1.6150
1074,1782079210.8379934,0.546604,1316,1.6064
1075,1782079210.8436584,0.552269,1315,1.6052
1076,1782079210.8446286,0.553239,1315,1.6052
1077,1782079210.848166,0.556777,1312,1.6016
1078,1782079210.8482468,0.556857,1316,1.6064
1079,1782079210.848288,0.556899,1314,1.6040
1080,1782079210.8483202,0.556931,1316,1.6064
1081,1782079210.8483522,0.556963,1311,1.6003
1082,1782079210.8483834,0.556994,1316,1.6064
1083,1782079210.848421,0.557032,1319,1.6101
1084,1782079210.8516214,0.560232,1318,1.6089
1085,1782079210.851705,0.560316,1316,1.6064
1086,1782079210.851742,0.560353,1311,1.6003
1087,1782079210.8517723,0.560383,1309,1.5979
1088,1782079210.8522701,0.560881,1310,1.5991
1089,1782079210.8523214,0.560932,1312,1.6016
1090,1782079210.8528047,0.561415,1309,1.5979
1091,1782079210.8528771,0.561488,1316,1.6064
1092,1782079210.8530104,0.561621,1315,1.6052
1093,1782079210.8530662,0.561677,1315,1.6052
1094,1782079210.8531053,0.561716,1316,1.6064
1095,1782079210.8531349,0.561745,1326,1.6187
1096,1782079210.8531651,0.561776,1334,1.6284
1097,1782079210.853224,0.561835,1332,1.6260
1098,1782079210.8532662,0.561877,1333,1.6272
1099,1782079210.8533468,0.561957,1342,1.6382
1100,1782079210.854111,0.562721,1345,1.6418
1101,1782079210.854285,0.562896,1346,1.6431
1102,1782079210.8548508,0.563461,1350,1.6479
1103,1782079210.85492,0.563530,1361,1.6614
1104,1782079210.855026,0.563637,1361,1.6614
1105,1782079210.855083,0.563694,1361,1.6614
1106,1782079210.8551164,0.563727,1363,1.6638
1107,1782079210.855146,0.563756,1369,1.6711
1108,1782079210.8560004,0.564611,1367,1.6687
1109,1782079210.8560567,0.564667,1361,1.6614
1110,1782079210.8566391,0.565250,1371,1.6736
1111,1782079210.8567061,0.565317,1369,1.6711
1112,1782079210.856785,0.565396,1366,1.6675
1113,1782079210.856872,0.565483,1366,1.6675
1114,1782079210.856956,0.565567,1359,1.6589
1115,1782079210.857036,0.565647,1366,1.6675
1116,1782079210.8576653,0.566276,1360,1.6602
1117,1782079210.8577418,0.566352,1362,1.6626
1118,1782079210.8577921,0.566403,1350,1.6479
1119,1782079210.857819,0.566430,1351,1.6492
1120,1782079210.85786,0.566471,1352,1.6504
1121,1782079210.8578992,0.566510,1351,1.6492
1122,1782079210.8579314,0.566542,1353,1.6516
1123,1782079210.857956,0.566566,1345,1.6418
1124,1782079210.8579803,0.566591,1346,1.6431
1125,1782079210.861235,0.569845,1343,1.6394
1126,1782079210.8612835,0.569894,1337,1.6321
1127,1782079210.8613172,0.569928,1339,1.6345
1128,1782079210.861346,0.569957,1341,1.6370
1129,1782079210.861394,0.570004,1340,1.6357
1130,1782079210.861422,0.570033,1335,1.6296
1131,1782079210.861467,0.570077,1340,1.6357
1132,1782079210.861498,0.570109,1342,1.6382
1133,1782079210.8615267,0.570137,1344,1.6406
1134,1782079210.8615675,0.570178,1350,1.6479
1135,1782079210.8616118,0.570222,1344,1.6406
1136,1782079210.861638,0.570249,1349,1.6467
1137,1782079210.8616714,0.570282,1357,1.6565
1138,1782079210.861738,0.570349,1360,1.6602
1139,1782079210.862746,0.571357,1365,1.6663
1140,1782079210.8627772,0.571388,1365,1.6663
1141,1782079210.864267,0.572878,1374,1.6772
1142,1782079210.8643045,0.572915,1373,1.6760
1143,1782079210.8643312,0.572942,1379,1.6833
1144,1782079210.864754,0.573364,1379,1.6833
1145,1782079210.8655865,0.574197,1387,1.6931
1146,1782079210.865731,0.574342,1381,1.6858
1147,1782079210.8662677,0.574878,1384,1.6895
1148,1782079210.8667545,0.575365,1386,1.6919
1149,1782079210.867269,0.575880,1385,1.6907
1150,1782079210.8677392,0.576350,1394,1.7017
1151,1782079210.8682327,0.576843,1386,1.6919
1152,1782079210.8687513,0.577362,1389,1.6956
1153,1782079210.8692605,0.577871,1390,1.6968
1154,1782079210.8697858,0.578396,1391,1.6980
1155,1782079210.8702714,0.578882,1387,1.6931
1156,1782079210.8707962,0.579407,1388,1.6943
1157,1782079210.871267,0.579878,1383,1.6882
1158,1782079210.8717813,0.580392,1381,1.6858
1159,1782079210.872341,0.580951,1380,1.6846
1160,1782079210.8728533,0.581464,1382,1.6870
1161,1782079210.873305,0.581916,1376,1.6797
1162,1782079210.873824,0.582434,1382,1.6870
1163,1782079210.8747082,0.583319,1378,1.6821
1164,1782079210.8747852,0.583396,1375,1.6785
1165,1782079210.8753493,0.583960,1379,1.6833
1166,1782079210.8757963,0.584407,1372,1.6748
1167,1782079210.8845482,0.593159,1372,1.6748
1168,1782079210.887163,0.595773,1377,1.6809
1169,1782079210.8880196,0.596630,1375,1.6785
1170,1782079210.8913934,0.600004,1377,1.6809
1171,1782079210.8914912,0.600102,1376,1.6797
1172,1782079210.8915713,0.600182,1378,1.6821
1173,1782079210.8916197,0.600230,1376,1.6797
1174,1782079210.8917377,0.600348,1378,1.6821
1175,1782079210.8918426,0.600453,1384,1.6895
1176,1782079210.8919084,0.600519,1385,1.6907
1177,1782079210.8919756,0.600586,1383,1.6882
1178,1782079210.892039,0.600650,1384,1.6895
1179,1782079210.892102,0.600713,1386,1.6919
1180,1782079210.892143,0.600754,1392,1.6992
1181,1782079210.892194,0.600805,1390,1.6968
1182,1782079210.8922334,0.600844,1389,1.6956
1183,1782079210.8922734,0.600884,1397,1.7053
1184,1782079210.8923435,0.600954,1396,1.7041
1185,1782079210.892391,0.601002,1403,1.7126
1186,1782079210.8963573,0.604968,1399,1.7078
1187,1782079210.8969147,0.605525,1400,1.7090
1188,1782079210.896987,0.605597,1403,1.7126
1189,1782079210.8970313,0.605642,1403,1.7126
1190,1782079210.8970735,0.605684,1407,1.7175
1191,1782079210.8971126,0.605723,1404,1.7139
1192,1782079210.89759,0.606200,1407,1.7175
1193,1782079210.8976665,0.606277,1399,1.7078
1194,1782079210.8977253,0.606336,1408,1.7188
1195,1782079210.8982022,0.606813,1403,1.7126
1196,1782079210.8982794,0.606890,1404,1.7139
1197,1782079210.8983665,0.606977,1405,1.7151
1198,1782079210.8984466,0.607057,1399,1.7078
1199,1782079210.898918,0.607528,1399,1.7078
1200,1782079210.8989737,0.607584,1395,1.7029
1201,1782079210.8990273,0.607638,1398,1.7065
1202,1782079210.899067,0.607677,1393,1.7004
1203,1782079210.8995402,0.608151,1395,1.7029
1204,1782079210.899607,0.608217,1391,1.6980
1205,1782079210.899675,0.608285,1394,1.7017
1206,1782079210.899711,0.608321,1389,1.6956
1207,1782079210.8997455,0.608356,1389,1.6956
1208,1782079210.900224,0.608835,1390,1.6968
1209,1782079210.9003172,0.608928,1389,1.6956
1210,1782079210.9003994,0.609010,1389,1.6956
1211,1782079210.9008417,0.609452,1390,1.6968
1212,1782079210.9009085,0.609519,1393,1.7004
1213,1782079210.900978,0.609589,1394,1.7017
1214,1782079210.9010162,0.609627,1396,1.7041
1215,1782079210.901089,0.609699,1400,1.7090
1216,1782079210.9011436,0.609754,1404,1.7139
1217,1782079210.9029732,0.611584,1403,1.7126
1218,1782079210.9030488,0.611659,1414,1.7261
1219,1782079210.9030879,0.611698,1407,1.7175
1220,1782079210.904771,0.613382,1416,1.7285
1221,1782079210.9048722,0.613483,1411,1.7224
1222,1782079210.904938,0.613549,1418,1.7310
1223,1782079210.9050446,0.613655,1415,1.7273
1224,1782079210.9050992,0.613710,1422,1.7358
1225,1782079210.9053304,0.613941,1419,1.7322
1226,1782079210.906686,0.615297,1419,1.7322
1227,1782079210.9081426,0.616753,1417,1.7297
1228,1782079210.908237,0.616848,1421,1.7346
1229,1782079210.90833,0.616940,1423,1.7371
1230,1782079210.9083903,0.617001,1423,1.7371
1231,1782079210.9084415,0.617052,1419,1.7322
1232,1782079210.9088497,0.617460,1414,1.7261
1233,1782079210.9095085,0.618119,1420,1.7334
1234,1782079210.9100053,0.618616,1415,1.7273
1235,1782079210.9103498,0.618960,1419,1.7322
1236,1782079210.910868,0.619478,1417,1.7297
1237,1782079210.9113357,0.619946,1416,1.7285
1238,1782079210.9118404,0.620451,1414,1.7261
1239,1782079210.9123297,0.620940,1411,1.7224
1240,1782079210.9128163,0.621427,1414,1.7261
1241,1782079210.9133568,0.621967,1413,1.7249
1242,1782079210.9138472,0.622458,1415,1.7273
1243,1782079210.9143295,0.622940,1409,1.7200
1244,1782079210.914938,0.623549,1409,1.7200
1245,1782079210.9154341,0.624045,1408,1.7188
1246,1782079210.915937,0.624547,1407,1.7175
1247,1782079210.9163916,0.625002,1408,1.7188
1248,1782079210.9170322,0.625643,1408,1.7188
1249,1782079210.917363,0.625973,1406,1.7163
1250,1782079210.9179108,0.626521,1405,1.7151
1251,1782079210.9183836,0.626994,1403,1.7126
1252,1782079210.9283597,0.636970,1405,1.7151
1253,1782079210.9290512,0.637662,1405,1.7151
1254,1782079210.9290843,0.637695,1409,1.7200
1255,1782079210.9291115,0.637722,1411,1.7224
1256,1782079210.9296074,0.638218,1412,1.7236
1257,1782079210.9300616,0.638672,1415,1.7273
1258,1782079210.930091,0.638701,1418,1.7310
1259,1782079210.930549,0.639159,1422,1.7358
1260,1782079210.9305782,0.639189,1427,1.7419
1261,1782079210.9306037,0.639214,1428,1.7432
1262,1782079210.9310515,0.639662,1432,1.7480
1263,1782079210.9310813,0.639692,1431,1.7468
1264,1782079210.931106,0.639717,1433,1.7493
1265,1782079210.9336889,0.642299,1432,1.7480
1266,1782079210.9337683,0.642379,1441,1.7590
1267,1782079210.9337962,0.642407,1430,1.7456
1268,1782079210.933828,0.642439,1437,1.7542
1269,1782079210.9338775,0.642488,1433,1.7493
1270,1782079210.9339035,0.642514,1434,1.7505
1271,1782079210.9339304,0.642541,1432,1.7480
1272,1782079210.9339764,0.642587,1442,1.7603
1273,1782079210.9340498,0.642660,1437,1.7542
1274,1782079210.9340746,0.642685,1443,1.7615
1275,1782079210.934106,0.642717,1442,1.7603
1276,1782079210.9341555,0.642766,1449,1.7688
1277,1782079210.9341855,0.642796,1445,1.7639
1278,1782079210.9342232,0.642834,1455,1.7761
1279,1782079210.9342704,0.642881,1450,1.7700
1280,1782079210.9342997,0.642910,1456,1.7773
1281,1782079210.934325,0.642936,1457,1.7786
1282,1782079210.93442,0.643031,1458,1.7798
1283,1782079210.9344482,0.643059,1453,1.7737
1284,1782079210.9373872,0.645998,1455,1.7761
1285,1782079210.9374664,0.646077,1447,1.7664
1286,1782079210.937522,0.646132,1454,1.7749
1287,1782079210.9375489,0.646159,1447,1.7664
1288,1782079210.9375825,0.646193,1452,1.7725
1289,1782079210.9376862,0.646297,1448,1.7676
1290,1782079210.9389586,0.647569,1447,1.7664
1291,1782079210.939065,0.647676,1439,1.7566
1292,1782079210.9391768,0.647787,1448,1.7676
1293,1782079210.940045,0.648656,1445,1.7639
1294,1782079210.9401572,0.648768,1450,1.7700
1295,1782079210.940781,0.649392,1444,1.7627
1296,1782079210.9408894,0.649500,1445,1.7639
1297,1782079210.9422977,0.650908,1443,1.7615
1298,1782079210.9423988,0.651009,1450,1.7700
1299,1782079210.9431846,0.651795,1453,1.7737
1300,1782079210.9432828,0.651893,1462,1.7847
1301,1782079210.943942,0.652553,1460,1.7822
1302,1782079210.9440196,0.652630,1466,1.7896
1303,1782079210.9445348,0.653145,1461,1.7834
1304,1782079210.94508,0.653691,1474,1.7993
1305,1782079210.947343,0.655954,1472,1.7969
1306,1782079210.9480157,0.656626,1477,1.8030
1307,1782079210.9480598,0.656670,1478,1.8042
1308,1782079210.948107,0.656718,1479,1.8054
1309,1782079210.9481514,0.656762,1479,1.8054
1310,1782079210.9481788,0.656789,1475,1.8005
1311,1782079210.94917,0.657781,1473,1.7981
1312,1782079210.9504824,0.659093,1481,1.8079
1313,1782079210.9505515,0.659162,1466,1.7896
1314,1782079210.9506006,0.659211,1469,1.7932
1315,1782079210.9506364,0.659247,1458,1.7798
1316,1782079210.9509351,0.659546,1464,1.7871
1317,1782079210.9515824,0.660193,1454,1.7749
1318,1782079210.9519463,0.660557,1455,1.7761
1319,1782079210.9524918,0.661102,1453,1.7737
1320,1782079210.9529734,0.661584,1459,1.7810
1321,1782079210.9534981,0.662109,1455,1.7761
1322,1782079210.9539118,0.662522,1463,1.7859
1323,1782079210.9545267,0.663137,1458,1.7798
1324,1782079210.954933,0.663543,1451,1.7712
1325,1782079210.9555068,0.664117,1455,1.7761
1326,1782079210.9559882,0.664599,1454,1.7749
1327,1782079210.9566736,0.665284,1452,1.7725
1328,1782079210.9570036,0.665614,1449,1.7688
1329,1782079210.9576015,0.666212,1444,1.7627
1330,1782079210.95808,0.666691,1436,1.7529
1331,1782079210.958602,0.667212,1435,1.7517
1332,1782079210.9590693,0.667680,1429,1.7444
1333,1782079210.9597785,0.668389,1429,1.7444
1334,1782079210.960042,0.668653,1432,1.7480
1335,1782079210.96065,0.669261,1434,1.7505
1336,1782079210.965503,0.674114,1433,1.7493
1337,1782079210.9668834,0.675494,1445,1.7639
1338,1782079210.9669275,0.675538,1442,1.7603
1339,1782079210.9693432,0.677954,1450,1.7700
1340,1782079210.9706414,0.679252,1452,1.7725
1341,1782079210.972292,0.680902,1460,1.7822
1342,1782079210.9723673,0.680978,1466,1.7896
1343,1782079210.9728587,0.681469,1475,1.8005
1344,1782079210.9756596,0.684270,1485,1.8127
1345,1782079210.975721,0.684331,1491,1.8201
1346,1782079210.975762,0.684372,1498,1.8286
1347,1782079210.9758122,0.684423,1497,1.8274
1348,1782079210.9782639,0.686874,1505,1.8372
1349,1782079210.978317,0.686928,1505,1.8372
1350,1782079210.9792306,0.687841,1509,1.8420
1351,1782079210.9792986,0.687909,1513,1.8469
1352,1782079210.9798179,0.688428,1514,1.8481
1353,1782079210.9798722,0.688483,1517,1.8518
1354,1782079210.9799068,0.688517,1517,1.8518
1355,1782079210.9799335,0.688544,1516,1.8506
1356,1782079210.9803755,0.688986,1516,1.8506
1357,1782079210.9804344,0.689045,1513,1.8469
1358,1782079210.9804716,0.689082,1516,1.8506
1359,1782079210.9804993,0.689110,1508,1.8408
1360,1782079210.9809537,0.689564,1511,1.8445
1361,1782079210.9810214,0.689632,1509,1.8420
1362,1782079210.9810586,0.689669,1506,1.8384
1363,1782079210.9810858,0.689696,1501,1.8323
1364,1782079210.9815693,0.690180,1504,1.8359
1365,1782079210.9816246,0.690235,1497,1.8274
1366,1782079210.9816582,0.690269,1501,1.8323
1367,1782079210.9821746,0.690785,1495,1.8250
1368,1782079210.982337,0.690948,1494,1.8237
1369,1782079210.9823875,0.690998,1482,1.8091
1370,1782079210.988082,0.696692,1482,1.8091
1371,1782079210.988437,0.697047,1477,1.8030
1372,1782079210.9887354,0.697346,1479,1.8054
1373,1782079210.9891567,0.697767,1473,1.7981
1374,1782079210.9892917,0.697902,1474,1.7993
1375,1782079210.9893699,0.697980,1466,1.7896
1376,1782079210.989572,0.698183,1472,1.7969
1377,1782079210.9897482,0.698359,1468,1.7920
1378,1782079210.9898512,0.698462,1471,1.7957
1379,1782079210.98992,0.698530,1475,1.8005
1380,1782079210.9899795,0.698590,1475,1.8005
1381,1782079210.9900434,0.698654,1477,1.8030
1382,1782079210.9900818,0.698692,1488,1.8164
1383,1782079210.990108,0.698719,1490,1.8188
1384,1782079210.9925866,0.701197,1494,1.8237
1385,1782079210.9926653,0.701276,1495,1.8250
1386,1782079210.9927166,0.701327,1507,1.8396
1387,1782079210.9927537,0.701364,1503,1.8347
1388,1782079210.9927785,0.701389,1508,1.8408
1389,1782079210.9928107,0.701421,1509,1.8420
1390,1782079210.9928527,0.701463,1511,1.8445
1391,1782079210.9928882,0.701499,1503,1.8347
1392,1782079210.9929142,0.701525,1504,1.8359
1393,1782079210.992976,0.701586,1499,1.8298
1394,1782079210.9930108,0.701621,1504,1.8359
1395,1782079210.9930387,0.701649,1498,1.8286
1396,1782079210.9930646,0.701675,1499,1.8298
1397,1782079210.9930909,0.701701,1505,1.8372
1398,1782079210.9931154,0.701726,1503,1.8347
1399,1782079210.9931405,0.701751,1505,1.8372
1400,1782079210.9931624,0.701773,1502,1.8335
1401,1782079210.993545,0.702156,1501,1.8323
1402,1782079210.9942276,0.702838,1505,1.8372
1403,1782079210.9945138,0.703124,1495,1.8250
1404,1782079210.9950116,0.703622,1493,1.8225
1405,1782079210.9955556,0.704166,1485,1.8127
1406,1782079210.9960515,0.704662,1482,1.8091
1407,1782079210.996562,0.705173,1476,1.8018
1408,1782079210.9970357,0.705646,1472,1.7969
1409,1782079210.9975495,0.706160,1465,1.7883
1410,1782079210.998064,0.706675,1466,1.7896
1411,1782079210.9985874,0.707198,1467,1.7908
1412,1782079210.9991877,0.707798,1460,1.7822
1413,1782079210.9996295,0.708240,1463,1.7859
1414,1782079211.0001905,0.708801,1461,1.7834
1415,1782079211.0006068,0.709217,1465,1.7883
1416,1782079211.001165,0.709775,1465,1.7883
1417,1782079211.0016656,0.710276,1456,1.7773
1418,1782079211.0021608,0.710771,1456,1.7773
1419,1782079211.0028389,0.711449,1461,1.7834
1420,1782079211.0030043,0.711615,1465,1.7883
1421,1782079211.003609,0.712219,1467,1.7908
1422,1782079211.0042164,0.712827,1467,1.7908
1423,1782079211.004485,0.713095,1473,1.7981
1424,1782079211.0050862,0.713697,1473,1.7981
1425,1782079211.011526,0.720137,1482,1.8091
1426,1782079211.0154042,0.724015,1484,1.8115
1427,1782079211.016585,0.725196,1485,1.8127
1428,1782079211.017987,0.726598,1484,1.8115
1429,1782079211.0211914,0.729802,1486,1.8140
1430,1782079211.021305,0.729916,1497,1.8274
1431,1782079211.0213573,0.729968,1494,1.8237
1432,1782079211.02139,0.730000,1497,1.8274
1433,1782079211.0214262,0.730037,1498,1.8286
1434,1782079211.0238497,0.732460,1498,1.8286
1435,1782079211.0258758,0.734486,1497,1.8274
1436,1782079211.0259495,0.734560,1496,1.8262
1437,1782079211.0260208,0.734631,1488,1.8164
1438,1782079211.0265472,0.735158,1487,1.8152
1439,1782079211.0265958,0.735206,1475,1.8005
1440,1782079211.0266476,0.735258,1476,1.8018
1441,1782079211.0266845,0.735295,1473,1.7981
1442,1782079211.027124,0.735734,1473,1.7981
1443,1782079211.0271816,0.735792,1467,1.7908
1444,1782079211.0272274,0.735838,1470,1.7944
1445,1782079211.027264,0.735875,1475,1.8005
1446,1782079211.027291,0.735902,1482,1.8091
1447,1782079211.0273225,0.735933,1487,1.8152
1448,1782079211.0278957,0.736506,1495,1.8250
1449,1782079211.0279562,0.736567,1498,1.8286
1450,1782079211.0279884,0.736599,1506,1.8384
1451,1782079211.028459,0.737070,1513,1.8469
1452,1782079211.0285432,0.737154,1509,1.8420
1453,1782079211.0285811,0.737192,1507,1.8396
1454,1782079211.0286076,0.737218,1498,1.8286
1455,1782079211.0293384,0.737949,1486,1.8140
1456,1782079211.0293894,0.738000,1478,1.8042
1457,1782079211.0294318,0.738042,1461,1.7834
1458,1782079211.0294652,0.738076,1456,1.7773
1459,1782079211.029533,0.738143,1447,1.7664
1460,1782079211.0301201,0.738731,1445,1.7639
1461,1782079211.0301702,0.738781,1446,1.7651
1462,1782079211.0336108,0.742221,1445,1.7639
1463,1782079211.0336964,0.742307,1451,1.7712
1464,1782079211.0337498,0.742360,1450,1.7700
1465,1782079211.033785,0.742396,1455,1.7761
1466,1782079211.0338295,0.742440,1453,1.7737
1467,1782079211.0338824,0.742493,1455,1.7761
1468,1782079211.0339146,0.742525,1453,1.7737
1469,1782079211.033941,0.742552,1458,1.7798
1470,1782079211.0339732,0.742584,1453,1.7737
1471,1782079211.034004,0.742615,1445,1.7639
1472,1782079211.0340312,0.742642,1444,1.7627
1473,1782079211.034063,0.742674,1447,1.7664
1474,1782079211.0340955,0.742706,1449,1.7688
1475,1782079211.0341244,0.742735,1466,1.7896
1476,1782079211.0341563,0.742767,1479,1.8054
1477,1782079211.0351093,0.743720,1490,1.8188
1478,1782079211.037272,0.745883,1499,1.8298
1479,1782079211.0373538,0.745964,1512,1.8457
1480,1782079211.037454,0.746064,1529,1.8665
1481,1782079211.0375721,0.746183,1546,1.8872
1482,1782079211.037653,0.746264,1558,1.9019
1483,1782079211.0377052,0.746316,1576,1.9238
1484,1782079211.0377867,0.746397,1588,1.9385
1485,1782079211.0379007,0.746511,1604,1.9580
1486,1782079211.0380127,0.746623,1610,1.9653
1487,1782079211.0381029,0.746713,1618,1.9751
1488,1782079211.0381668,0.746777,1624,1.9824
1489,1782079211.0382373,0.746848,1629,1.9885
1490,1782079211.038288,0.746899,1634,1.9946
1491,1782079211.0386236,0.747234,1647,2.0105
1492,1782079211.0390897,0.747700,1648,2.0117
1493,1782079211.0400856,0.748696,1656,2.0215
1494,1782079211.0401413,0.748752,1657,2.0227
1495,1782079211.0406318,0.749242,1657,2.0227
1496,1782079211.0411444,0.749755,1643,2.0056
1497,1782079211.0416358,0.750246,1637,1.9983
1498,1782079211.0421453,0.750756,1624,1.9824
1499,1782079211.042625,0.751235,1615,1.9714
1500,1782079211.0431595,0.751770,1606,1.9604
1501,1782079211.0436366,0.752247,1600,1.9531
1502,1782079211.0441,0.752711,1599,1.9519
1503,1782079211.044661,0.753272,1607,1.9617
1504,1782079211.045259,0.753870,1609,1.9641
1505,1782079211.0456755,0.754286,1620,1.9775
1506,1782079211.046128,0.754739,1626,1.9849
1507,1782079211.0466409,0.755251,1628,1.9873
1508,1782079211.0471382,0.755749,1632,1.9922
1509,1782079211.047637,0.756248,1627,1.9861
1510,1782079211.0483375,0.756948,1632,1.9922
1511,1782079211.0486133,0.757224,1632,1.9922
1512,1782079211.0491602,0.757771,1627,1.9861
1513,1782079211.0528288,0.761439,1628,1.9873
1514,1782079211.0602322,0.768843,1628,1.9873
1515,1782079211.0619571,0.770568,1633,1.9934
1516,1782079211.0620215,0.770632,1628,1.9873
1517,1782079211.0625231,0.771134,1635,1.9958
1518,1782079211.0653543,0.773965,1633,1.9934
1519,1782079211.065416,0.774027,1637,1.9983
1520,1782079211.0654683,0.774079,1641,2.0032
1521,1782079211.0655143,0.774125,1647,2.0105
1522,1782079211.065557,0.774168,1646,2.0093
1523,1782079211.065607,0.774218,1647,2.0105
1524,1782079211.0686147,0.777225,1651,2.0154
1525,1782079211.0691237,0.777734,1650,2.0142
1526,1782079211.0691853,0.777796,1658,2.0239
1527,1782079211.0692236,0.777834,1657,2.0227
1528,1782079211.0698059,0.778416,1656,2.0215
1529,1782079211.0700147,0.778625,1651,2.0154
1530,1782079211.0701509,0.778761,1655,2.0203
1531,1782079211.070318,0.778929,1652,2.0166
1532,1782079211.0712302,0.779841,1645,2.0081
1533,1782079211.0713537,0.779964,1638,1.9995
1534,1782079211.0715415,0.780152,1635,1.9958
1535,1782079211.0716765,0.780287,1639,2.0007
1536,1782079211.072821,0.781431,1643,2.0056
1537,1782079211.0728877,0.781498,1637,1.9983
1538,1782079211.0729232,0.781534,1641,2.0032
1539,1782079211.0741265,0.782737,1641,2.0032
1540,1782079211.0741987,0.782809,1641,2.0032
1541,1782079211.0742502,0.782861,1642,2.0044
1542,1782079211.0743234,0.782934,1641,2.0032
1543,1782079211.074859,0.783469,1638,1.9995
1544,1782079211.0749192,0.783530,1645,2.0081
1545,1782079211.0749533,0.783564,1646,2.0093
1546,1782079211.0786517,0.787262,1648,2.0117
1547,1782079211.078729,0.787339,1645,2.0081
1548,1782079211.0787663,0.787377,1644,2.0068
1549,1782079211.0787945,0.787405,1641,2.0032
1550,1782079211.078857,0.787467,1639,2.0007
1551,1782079211.0788872,0.787498,1637,1.9983
1552,1782079211.0789185,0.787529,1634,1.9946
1553,1782079211.0789444,0.787555,1629,1.9885
1554,1782079211.0789733,0.787584,1631,1.9910
1555,1782079211.079004,0.787615,1627,1.9861
1556,1782079211.0790303,0.787641,1620,1.9775
1557,1782079211.079059,0.787669,1622,1.9800
1558,1782079211.0790849,0.787695,1617,1.9739
1559,1782079211.0791314,0.787742,1624,1.9824
1560,1782079211.0791583,0.787769,1620,1.9775
1561,1782079211.079188,0.787799,1621,1.9788
1562,1782079211.079215,0.787826,1624,1.9824
1563,1782079211.081503,0.790113,1622,1.9800
1564,1782079211.0816169,0.790227,1621,1.9788
1565,1782079211.0816746,0.790285,1617,1.9739
1566,1782079211.081724,0.790334,1618,1.9751
1567,1782079211.0817492,0.790360,1620,1.9775
1568,1782079211.0817883,0.790399,1623,1.9812
1569,1782079211.0818174,0.790428,1618,1.9751
1570,1782079211.0818436,0.790454,1623,1.9812
1571,1782079211.081886,0.790497,1624,1.9824
1572,1782079211.0819259,0.790536,1624,1.9824
1573,1782079211.0819557,0.790566,1621,1.9788
1574,1782079211.081981,0.790591,1618,1.9751
1575,1782079211.0820076,0.790618,1619,1.9763
1576,1782079211.0820353,0.790646,1616,1.9727
1577,1782079211.0820634,0.790674,1618,1.9751
1578,1782079211.0821307,0.790741,1618,1.9751
1579,1782079211.0830073,0.791618,1617,1.9739
1580,1782079211.0832171,0.791828,1615,1.9714
1581,1782079211.0837245,0.792335,1614,1.9702
1582,1782079211.084217,0.792828,1612,1.9678
1583,1782079211.0847237,0.793334,1610,1.9653
1584,1782079211.0852194,0.793830,1612,1.9678
1585,1782079211.0857265,0.794337,1606,1.9604
1586,1782079211.0861964,0.794807,1613,1.9690
1587,1782079211.086622,0.795233,1611,1.9666
1588,1782079211.087136,0.795747,1603,1.9568
1589,1782079211.087665,0.796276,1598,1.9507
1590,1782079211.0881228,0.796733,1606,1.9604
1591,1782079211.088628,0.797239,1603,1.9568
1592,1782079211.089142,0.797753,1600,1.9531
1593,1782079211.0896535,0.798264,1608,1.9629
1594,1782079211.0901444,0.798755,1612,1.9678
1595,1782079211.0906656,0.799276,1611,1.9666
1596,1782079211.0911942,0.799805,1612,1.9678
1597,1782079211.0917482,0.800359,1613,1.9690
1598,1782079211.0922499,0.800860,1622,1.9800
1599,1782079211.0935073,0.802118,1623,1.9812
1600,1782079211.0935812,0.802192,1619,1.9763
1601,1782079211.0936441,0.802255,1617,1.9739
1602,1782079211.094259,0.802870,1611,1.9666
1603,1782079211.0947368,0.803347,1609,1.9641
1604,1782079211.0984259,0.807036,1610,1.9653
1605,1782079211.0985305,0.807141,1603,1.9568
1606,1782079211.102232,0.810843,1602,1.9556
1607,1782079211.1023023,0.810913,1597,1.9495
1608,1782079211.1053703,0.813981,1596,1.9482
1609,1782079211.1070817,0.815692,1602,1.9556
1610,1782079211.107289,0.815900,1593,1.9446
1611,1782079211.1073468,0.815957,1594,1.9458
1612,1782079211.1096992,0.818310,1588,1.9385
1613,1782079211.1110032,0.819614,1588,1.9385
1614,1782079211.1112137,0.819824,1586,1.9360
1615,1782079211.1192577,0.827868,1589,1.9397
1616,1782079211.119553,0.828164,1591,1.9421
1617,1782079211.119656,0.828267,1584,1.9336
1618,1782079211.1197834,0.828394,1580,1.9287
1619,1782079211.1198804,0.828491,1580,1.9287
1620,1782079211.120001,0.828612,1579,1.9275
1621,1782079211.1200895,0.828700,1573,1.9202
1622,1782079211.120151,0.828762,1572,1.9189
1623,1782079211.1201997,0.828810,1573,1.9202
1624,1782079211.1202419,0.828852,1581,1.9299
1625,1782079211.1202972,0.828908,1579,1.9275
1626,1782079211.1203432,0.828954,1587,1.9373
1627,1782079211.1204104,0.829021,1595,1.9470
1628,1782079211.1220706,0.830681,1600,1.9531
1629,1782079211.124144,0.832755,1610,1.9653
1630,1782079211.124188,0.832798,1618,1.9751
1631,1782079211.124219,0.832829,1623,1.9812
1632,1782079211.1247885,0.833399,1630,1.9897
1633,1782079211.124818,0.833429,1632,1.9922
1634,1782079211.1248634,0.833474,1631,1.9910
1635,1782079211.1248896,0.833500,1633,1.9934
1636,1782079211.124917,0.833528,1624,1.9824
1637,1782079211.1249404,0.833551,1622,1.9800
1638,1782079211.124981,0.833591,1612,1.9678
1639,1782079211.1250076,0.833618,1602,1.9556
1640,1782079211.125536,0.834146,1592,1.9434
1641,1782079211.125583,0.834193,1584,1.9336
1642,1782079211.125695,0.834306,1576,1.9238
1643,1782079211.1257274,0.834338,1561,1.9055
1644,1782079211.1257517,0.834362,1553,1.8958
1645,1782079211.1263597,0.834970,1543,1.8835
1646,1782079211.1263907,0.835001,1546,1.8872
1647,1782079211.1264315,0.835042,1540,1.8799
1648,1782079211.126458,0.835068,1547,1.8884
1649,1782079211.1265094,0.835120,1546,1.8872
1650,1782079211.126533,0.835144,1557,1.9006
1651,1782079211.1265714,0.835182,1569,1.9153
1652,1782079211.1265974,0.835208,1572,1.9189
1653,1782079211.1272836,0.835894,1581,1.9299
1654,1782079211.127308,0.835918,1594,1.9458
1655,1782079211.1273518,0.835962,1598,1.9507
1656,1782079211.12738,0.835990,1610,1.9653
1657,1782079211.127404,0.836015,1610,1.9653
1658,1782079211.127442,0.836052,1624,1.9824
1659,1782079211.1274705,0.836081,1623,1.9812
1660,1782079211.127494,0.836105,1631,1.9910
1661,1782079211.1281164,0.836727,1633,1.9934
1662,1782079211.1281397,0.836750,1641,2.0032
1663,1782079211.1281824,0.836793,1639,2.0007
1664,1782079211.1282024,0.836813,1642,2.0044
1665,1782079211.1282306,0.836841,1648,2.0117
1666,1782079211.1282692,0.836880,1642,2.0044
1667,1782079211.1283064,0.836917,1643,2.0056
1668,1782079211.1283286,0.836939,1643,2.0056
1669,1782079211.128969,0.837579,1644,2.0068
1670,1782079211.1290143,0.837625,1640,2.0020
1671,1782079211.1290665,0.837677,1635,1.9958
1672,1782079211.1297774,0.838388,1630,1.9897
1673,1782079211.1298103,0.838421,1617,1.9739
1674,1782079211.1305878,0.839198,1611,1.9666
1675,1782079211.1307096,0.839320,1600,1.9531
1676,1782079211.1352408,0.843851,1596,1.9482
1677,1782079211.1353922,0.844003,1585,1.9348
1678,1782079211.1354792,0.844090,1584,1.9336
1679,1782079211.1355643,0.844175,1577,1.9250
1680,1782079211.1356125,0.844223,1578,1.9263
1681,1782079211.1356475,0.844258,1576,1.9238
1682,1782079211.1358824,0.844493,1581,1.9299
1683,1782079211.1359873,0.844598,1580,1.9287
1684,1782079211.1360247,0.844635,1583,1.9324
1685,1782079211.1360548,0.844665,1592,1.9434
1686,1782079211.1362336,0.844844,1591,1.9421
1687,1782079211.13809,0.846700,1598,1.9507
1688,1782079211.140909,0.849519,1599,1.9519
1689,1782079211.1409879,0.849598,1602,1.9556
1690,1782079211.1410356,0.849646,1609,1.9641
1691,1782079211.1411238,0.849734,1618,1.9751
1692,1782079211.141174,0.849785,1619,1.9763
1693,1782079211.1412394,0.849850,1624,1.9824
1694,1782079211.1412978,0.849908,1633,1.9934
1695,1782079211.1413426,0.849953,1637,1.9983
1696,1782079211.1413946,0.850005,1637,1.9983
1697,1782079211.141765,0.850376,1640,2.0020
1698,1782079211.14304,0.851650,1641,2.0032
1699,1782079211.1430843,0.851695,1641,2.0032
1700,1782079211.1432517,0.851862,1645,2.0081
1701,1782079211.1438441,0.852455,1647,2.0105
1702,1782079211.1442657,0.852876,1646,2.0093
1703,1782079211.144772,0.853383,1637,1.9983
1704,1782079211.145291,0.853902,1644,2.0068
1705,1782079211.1457865,0.854397,1637,1.9983
1706,1782079211.1463249,0.854935,1632,1.9922
1707,1782079211.1468306,0.855441,1630,1.9897
1708,1782079211.1473298,0.855940,1626,1.9849
1709,1782079211.147827,0.856437,1618,1.9751
1710,1782079211.1483235,0.856934,1609,1.9641
1711,1782079211.1488292,0.857440,1603,1.9568
1712,1782079211.1493194,0.857930,1599,1.9519
1713,1782079211.1498368,0.858447,1591,1.9421
1714,1782079211.1503131,0.858924,1590,1.9409
1715,1782079211.1508286,0.859439,1584,1.9336
1716,1782079211.1513505,0.859961,1586,1.9360
1717,1782079211.1518314,0.860442,1585,1.9348
1718,1782079211.1523535,0.860964,1579,1.9275
1719,1782079211.152786,0.861397,1582,1.9312
1720,1782079211.1532514,0.861862,1575,1.9226
1721,1782079211.1537669,0.862377,1578,1.9263
1722,1782079211.1552827,0.863893,1574,1.9214
1723,1782079211.1554074,0.864018,1579,1.9275
1724,1782079211.1554525,0.864063,1576,1.9238
1725,1782079211.1558654,0.864476,1573,1.9202
1726,1782079211.156356,0.864967,1574,1.9214
1727,1782079211.1647525,0.873363,1579,1.9275
1728,1782079211.1648123,0.873423,1574,1.9214
1729,1782079211.165305,0.873915,1573,1.9202
1730,1782079211.165339,0.873950,1575,1.9226
1731,1782079211.1658425,0.874453,1583,1.9324
1732,1782079211.165902,0.874512,1583,1.9324
1733,1782079211.1659253,0.874536,1579,1.9275
1734,1782079211.1663272,0.874938,1586,1.9360
1735,1782079211.1663575,0.874968,1581,1.9299
1736,1782079211.166391,0.875001,1580,1.9287
1737,1782079211.1667967,0.875407,1569,1.9153
1738,1782079211.1668615,0.875472,1562,1.9067
1739,1782079211.1672614,0.875872,1551,1.8933
1740,1782079211.1672916,0.875902,1549,1.8909
1741,1782079211.167315,0.875926,1540,1.8799
1742,1782079211.1700778,0.878688,1529,1.8665
1743,1782079211.170355,0.878966,1519,1.8542
1744,1782079211.1704075,0.879018,1507,1.8396
1745,1782079211.1704445,0.879055,1504,1.8359
1746,1782079211.170478,0.879089,1502,1.8335
1747,1782079211.1705086,0.879119,1504,1.8359
1748,1782079211.1706285,0.879239,1508,1.8408
1749,1782079211.1707618,0.879372,1514,1.8481
1750,1782079211.170847,0.879457,1521,1.8567
1751,1782079211.1709504,0.879561,1530,1.8677
1752,1782079211.1710417,0.879652,1538,1.8774
1753,1782079211.1712098,0.879820,1543,1.8835
1754,1782079211.1747544,0.883365,1551,1.8933
1755,1782079211.174859,0.883470,1549,1.8909
1756,1782079211.1748967,0.883507,1548,1.8896
1757,1782079211.1754773,0.884088,1545,1.8860
1758,1782079211.1755433,0.884154,1543,1.8835
1759,1782079211.1755826,0.884193,1542,1.8823
1760,1782079211.175612,0.884223,1550,1.8921
1761,1782079211.1762412,0.884852,1557,1.9006
1762,1782079211.176765,0.885375,1565,1.9104
1763,1782079211.1768606,0.885471,1569,1.9153
1764,1782079211.1768959,0.885506,1571,1.9177
1765,1782079211.1769228,0.885533,1567,1.9128
1766,1782079211.1769524,0.885563,1574,1.9214
1767,1782079211.1775107,0.886121,1579,1.9275
1768,1782079211.1775806,0.886191,1581,1.9299
1769,1782079211.1782203,0.886831,1584,1.9336
1770,1782079211.1783237,0.886934,1590,1.9409
1771,1782079211.1788626,0.887473,1605,1.9592
1772,1782079211.1793923,0.888003,1611,1.9666
1773,1782079211.1838222,0.892433,1625,1.9836
1774,1782079211.1839504,0.892561,1629,1.9885
1775,1782079211.1840205,0.892631,1640,2.0020
1776,1782079211.184152,0.892762,1647,2.0105
1777,1782079211.1842086,0.892819,1655,2.0203
1778,1782079211.1842923,0.892903,1650,2.0142
1779,1782079211.1843703,0.892981,1652,2.0166
1780,1782079211.1844077,0.893018,1652,2.0166
1781,1782079211.18445,0.893060,1655,2.0203
1782,1782079211.1844852,0.893096,1652,2.0166
1783,1782079211.1858456,0.894456,1659,2.0251
1784,1782079211.1861794,0.894790,1663,2.0300
1785,1782079211.18932,0.897931,1669,2.0374
1786,1782079211.1893978,0.898008,1668,2.0361
1787,1782079211.1894703,0.898081,1671,2.0398
1788,1782079211.1895142,0.898125,1670,2.0386
1789,1782079211.1897082,0.898319,1669,2.0374
1790,1782079211.1897848,0.898395,1663,2.0300
1791,1782079211.1898623,0.898473,1659,2.0251
1792,1782079211.1899061,0.898517,1658,2.0239
1793,1782079211.1899595,0.898570,1640,2.0020
1794,1782079211.1904283,0.899039,1632,1.9922
1795,1782079211.1913843,0.899995,1621,1.9788
1796,1782079211.191476,0.900087,1607,1.9617
1797,1782079211.1920383,0.900649,1590,1.9409
1798,1782079211.192423,0.901034,1578,1.9263
1799,1782079211.1929247,0.901535,1572,1.9189
1800,1782079211.193439,0.902050,1560,1.9043
1801,1782079211.1939359,0.902546,1557,1.9006
1802,1782079211.1943867,0.902997,1559,1.9031
1803,1782079211.1949413,0.903552,1556,1.8994
1804,1782079211.1954548,0.904065,1560,1.9043
1805,1782079211.195957,0.904567,1566,1.9116
1806,1782079211.1964538,0.905064,1576,1.9238
1807,1782079211.1969268,0.905537,1578,1.9263
1808,1782079211.1974392,0.906050,1577,1.9250
1809,1782079211.1979337,0.906544,1578,1.9263
1810,1782079211.1984577,0.907068,1582,1.9312
1811,1782079211.1989772,0.907588,1587,1.9373
1812,1782079211.1994584,0.908069,1586,1.9360
1813,1782079211.2002332,0.908844,1588,1.9385
1814,1782079211.2003398,0.908950,1583,1.9324
1815,1782079211.2008805,0.909491,1582,1.9312
1816,1782079211.2014227,0.910033,1589,1.9397
1817,1782079211.201951,0.910562,1585,1.9348
1818,1782079211.2023494,0.910960,1590,1.9409
1819,1782079211.2035403,0.912151,1580,1.9287
1820,1782079211.2137444,0.922355,1584,1.9336
1821,1782079211.2155423,0.924153,1590,1.9409
1822,1782079211.2172096,0.925820,1596,1.9482
1823,1782079211.2227163,0.931327,1599,1.9519
1824,1782079211.2228894,0.931500,1607,1.9617
1825,1782079211.2229793,0.931590,1604,1.9580
1826,1782079211.2230475,0.931658,1615,1.9714
1827,1782079211.223089,0.931700,1623,1.9812
1828,1782079211.2231307,0.931741,1619,1.9763
1829,1782079211.2231684,0.931779,1631,1.9910
1830,1782079211.226831,0.935441,1627,1.9861
1831,1782079211.2269478,0.935558,1640,2.0020
1832,1782079211.227523,0.936134,1646,2.0093
1833,1782079211.2276402,0.936251,1655,2.0203
1834,1782079211.227684,0.936295,1655,2.0203
1835,1782079211.2283163,0.936927,1665,2.0325
1836,1782079211.2283788,0.936989,1663,2.0300
1837,1782079211.2284374,0.937048,1673,2.0422
1838,1782079211.2285073,0.937118,1672,2.0410
1839,1782079211.2285485,0.937159,1679,2.0496
1840,1782079211.2292585,0.937869,1679,2.0496
1841,1782079211.2293313,0.937942,1687,2.0593
1842,1782079211.2299166,0.938527,1684,2.0557
1843,1782079211.2300022,0.938613,1690,2.0630
1844,1782079211.2300842,0.938695,1687,2.0593
1845,1782079211.2301204,0.938731,1694,2.0679
1846,1782079211.230753,0.939363,1696,2.0703
1847,1782079211.230814,0.939425,1703,2.0789
1848,1782079211.2313375,0.939948,1704,2.0801
1849,1782079211.2314634,0.940074,1709,2.0862
1850,1782079211.2315214,0.940132,1705,2.0813
1851,1782079211.2320185,0.940629,1705,2.0813
1852,1782079211.2320821,0.940693,1699,2.0740
1853,1782079211.232123,0.940733,1699,2.0740
1854,1782079211.2321558,0.940766,1692,2.0654
1855,1782079211.2351193,0.943730,1697,2.0715
1856,1782079211.2351809,0.943791,1689,2.0618
1857,1782079211.2352226,0.943833,1692,2.0654
1858,1782079211.235248,0.943859,1694,2.0679
1859,1782079211.2352924,0.943903,1695,2.0691
1860,1782079211.2353175,0.943928,1696,2.0703
1861,1782079211.2353494,0.943960,1696,2.0703
1862,1782079211.235393,0.944004,1693,2.0667
1863,1782079211.2354274,0.944038,1693,2.0667
1864,1782079211.2354712,0.944082,1689,2.0618
1865,1782079211.2355175,0.944128,1689,2.0618
1866,1782079211.2355554,0.944166,1677,2.0471
1867,1782079211.2355802,0.944191,1676,2.0459
1868,1782079211.2356367,0.944247,1662,2.0288
1869,1782079211.2356653,0.944276,1664,2.0312
1870,1782079211.2356913,0.944302,1654,2.0190
1871,1782079211.2357194,0.944330,1651,2.0154
1872,1782079211.2357435,0.944354,1649,2.0129
1873,1782079211.235773,0.944384,1642,2.0044
1874,1782079211.2369244,0.945535,1635,1.9958
1875,1782079211.2372272,0.945838,1631,1.9910
1876,1782079211.2395074,0.948118,1628,1.9873
1877,1782079211.2396865,0.948297,1624,1.9824
1878,1782079211.239751,0.948362,1617,1.9739
1879,1782079211.2400558,0.948666,1617,1.9739
1880,1782079211.2401805,0.948791,1621,1.9788
1881,1782079211.2402437,0.948854,1623,1.9812
1882,1782079211.2403061,0.948917,1617,1.9739
1883,1782079211.2403653,0.948976,1619,1.9763
1884,1782079211.2404032,0.949014,1608,1.9629
1885,1782079211.24043,0.949041,1603,1.9568
1886,1782079211.2404573,0.949068,1595,1.9470
1887,1782079211.2404952,0.949106,1591,1.9421
1888,1782079211.2405422,0.949153,1585,1.9348
1889,1782079211.2405734,0.949184,1578,1.9263
1890,1782079211.2406056,0.949216,1574,1.9214
1891,1782079211.2406325,0.949243,1573,1.9202
1892,1782079211.2406757,0.949286,1565,1.9104
1893,1782079211.2406988,0.949309,1561,1.9055
1894,1782079211.2407396,0.949350,1559,1.9031
1895,1782079211.24098,0.949590,1560,1.9043
1896,1782079211.2415867,0.950197,1564,1.9092
1897,1782079211.2419953,0.950606,1563,1.9080
1898,1782079211.2424674,0.951078,1561,1.9055
1899,1782079211.2442524,0.952863,1565,1.9104
1900,1782079211.2446067,0.953217,1554,1.8970
1901,1782079211.2447934,0.953404,1560,1.9043
1902,1782079211.245072,0.953682,1562,1.9067
1903,1782079211.2454896,0.954100,1555,1.8982
1904,1782079211.2456906,0.954301,1553,1.8958
1905,1782079211.2459624,0.954573,1552,1.8945
1906,1782079211.2465706,0.955181,1555,1.8982
1907,1782079211.246967,0.955578,1548,1.8896
1908,1782079211.247567,0.956177,1547,1.8884
1909,1782079211.2479637,0.956574,1543,1.8835
1910,1782079211.2485487,0.957159,1537,1.8762
1911,1782079211.2488608,0.957471,1533,1.8713
1912,1782079211.2494614,0.958072,1533,1.8713
1913,1782079211.2500103,0.958621,1524,1.8604
1914,1782079211.2504556,0.959066,1523,1.8591
1915,1782079211.2510722,0.959683,1524,1.8604
1916,1782079211.2516608,0.960271,1521,1.8567
1917,1782079211.2520728,0.960683,1518,1.8530
1918,1782079211.2525473,0.961158,1520,1.8555
1919,1782079211.2529168,0.961527,1522,1.8579
1920,1782079211.2535186,0.962129,1527,1.8640
1921,1782079211.2547393,0.963350,1529,1.8665
1922,1782079211.2548106,0.963421,1539,1.8787
1923,1782079211.2549932,0.963604,1548,1.8896
1924,1782079211.2555707,0.964181,1558,1.9019
1925,1782079211.2645104,0.973121,1565,1.9104
1926,1782079211.266382,0.974993,1571,1.9177
1927,1782079211.2676234,0.976234,1578,1.9263
1928,1782079211.2682538,0.976864,1582,1.9312
1929,1782079211.2733054,0.981916,1596,1.9482
1930,1782079211.2733922,0.982003,1600,1.9531
1931,1782079211.2734776,0.982088,1607,1.9617
1932,1782079211.2735212,0.982132,1608,1.9629
1933,1782079211.273568,0.982178,1623,1.9812
1934,1782079211.2736044,0.982215,1626,1.9849
1935,1782079211.2736592,0.982270,1637,1.9983
1936,1782079211.2769125,0.985523,1643,2.0056
1937,1782079211.2769814,0.985592,1648,2.0117
1938,1782079211.277024,0.985635,1653,2.0178
1939,1782079211.2770526,0.985663,1660,2.0264
1940,1782079211.2775717,0.986182,1668,2.0361
1941,1782079211.277663,0.986274,1672,2.0410
1942,1782079211.2781239,0.986734,1676,2.0459
1943,1782079211.2781928,0.986803,1681,2.0520
1944,1782079211.2782404,0.986851,1684,2.0557
1945,1782079211.278271,0.986881,1690,2.0630
1946,1782079211.278336,0.986947,1695,2.0691
1947,1782079211.2788293,0.987440,1706,2.0825
1948,1782079211.278896,0.987507,1712,2.0898
1949,1782079211.2789304,0.987541,1725,2.1057
1950,1782079211.278961,0.987571,1733,2.1155
1951,1782079211.2794309,0.988041,1742,2.1265
1952,1782079211.2794938,0.988104,1738,2.1216
1953,1782079211.2795315,0.988142,1741,2.1252
1954,1782079211.2795596,0.988170,1735,2.1179
1955,1782079211.2800424,0.988653,1739,2.1228
1956,1782079211.2800994,0.988710,1726,2.1069
1957,1782079211.2801445,0.988755,1725,2.1057
1958,1782079211.280721,0.989331,1716,2.0947
1959,1782079211.2807715,0.989382,1710,2.0874
1960,1782079211.2812607,0.989871,1702,2.0776
1961,1782079211.2813597,0.989970,1695,2.0691
1962,1782079211.2814012,0.990012,1683,2.0544
1963,1782079211.2814307,0.990041,1680,2.0508
1964,1782079211.2842422,0.992853,1678,2.0483
1965,1782079211.2843034,0.992914,1673,2.0422
1966,1782079211.2843342,0.992945,1670,2.0386
1967,1782079211.2843642,0.992975,1670,2.0386
1968,1782079211.2844093,0.993020,1667,2.0349
1969,1782079211.2844527,0.993063,1663,2.0300
1970,1782079211.2844942,0.993105,1661,2.0276
1971,1782079211.2845373,0.993148,1659,2.0251
1972,1782079211.2845814,0.993192,1658,2.0239
1973,1782079211.2846234,0.993234,1660,2.0264
1974,1782079211.2846801,0.993291,1660,2.0264
1975,1782079211.2847202,0.993331,1648,2.0117
1976,1782079211.2847507,0.993361,1655,2.0203
1977,1782079211.2847745,0.993385,1658,2.0239
1978,1782079211.2848027,0.993413,1653,2.0178
1979,1782079211.2848272,0.993438,1654,2.0190
1980,1782079211.2848554,0.993466,1659,2.0251
1981,1782079211.2848787,0.993489,1660,2.0264
1982,1782079211.2849174,0.993528,1662,2.0288
1983,1782079211.285768,0.994379,1664,2.0312
1984,1782079211.289765,0.998375,1666,2.0337
1985,1782079211.2899456,0.998556,1664,2.0312
1986,1782079211.2900329,0.998643,1668,2.0361
1987,1782079211.290084,0.998694,1673,2.0422
1988,1782079211.2901318,0.998742,1676,2.0459
1989,1782079211.29019,0.998801,1682,2.0532
1990,1782079211.2902174,0.998828,1682,2.0532
1991,1782079211.2902591,0.998870,1685,2.0569
1992,1782079211.2903128,0.998923,1684,2.0557
1993,1782079211.2903461,0.998957,1687,2.0593
1994,1782079211.29052,0.999130,1681,2.0520
1995,1782079211.2914546,1.000065,1681,2.0520
1996,1782079211.2915475,1.000158,1687,2.0593
1997,1782079211.2920833,1.000694,1685,2.0569
1998,1782079211.2926123,1.001223,1679,2.0496
1999,1782079211.293072,1.001683,1683,2.0544
2000,1782079211.2936108,1.002221,1679,2.0496
2001,1782079211.294066,1.002676,1685,2.0569
2002,1782079211.2946088,1.003219,1683,2.0544
2003,1782079211.2950947,1.003705,1684,2.0557
2004,1782079211.295604,1.004215,1678,2.0483
2005,1782079211.296094,1.004704,1669,2.0374
2006,1782079211.296603,1.005213,1672,2.0410
2007,1782079211.2971468,1.005757,1660,2.0264
2008,1782079211.2976413,1.006252,1662,2.0288
2009,1782079211.2981174,1.006728,1655,2.0203
2010,1782079211.298604,1.007215,1641,2.0032
2011,1782079211.2994015,1.008012,1624,1.9824
2012,1782079211.2995245,1.008135,1610,1.9653
2013,1782079211.3001313,1.008742,1595,1.9470
2014,1782079211.3098042,1.018415,1582,1.9312
2015,1782079211.3121119,1.020722,1560,1.9043
2016,1782079211.3121853,1.020796,1549,1.8909
2017,1782079211.3122408,1.020851,1532,1.8701
2018,1782079211.312944,1.021554,1522,1.8579
2019,1782079211.3136036,1.022214,1515,1.8494
2020,1782079211.3145773,1.023188,1511,1.8445
2021,1782079211.31756,1.026170,1514,1.8481
2022,1782079211.3176413,1.026252,1518,1.8530
2023,1782079211.317686,1.026297,1524,1.8604
2024,1782079211.3177233,1.026334,1530,1.8677
2025,1782079211.317753,1.026364,1533,1.8713
2026,1782079211.3178015,1.026412,1535,1.8738
2027,1782079211.3178399,1.026450,1538,1.8774
2028,1782079211.3178694,1.026480,1540,1.8799
2029,1782079211.317903,1.026514,1542,1.8823
2030,1782079211.3179338,1.026544,1537,1.8762
2031,1782079211.3179686,1.026579,1544,1.8848
2032,1782079211.3184853,1.027096,1539,1.8787
2033,1782079211.320974,1.029585,1540,1.8799
2034,1782079211.3218598,1.030470,1536,1.8750
2035,1782079211.321922,1.030533,1530,1.8677
2036,1782079211.3225412,1.031152,1536,1.8750
2037,1782079211.3226,1.031210,1532,1.8701
2038,1782079211.3226354,1.031246,1536,1.8750
2039,1782079211.322665,1.031276,1534,1.8726
2040,1782079211.3227024,1.031313,1538,1.8774
2041,1782079211.322734,1.031345,1539,1.8787
2042,1782079211.3233762,1.031987,1546,1.8872
2043,1782079211.323468,1.032079,1545,1.8860
2044,1782079211.3240087,1.032619,1545,1.8860
2045,1782079211.3241148,1.032725,1547,1.8884
2046,1782079211.324159,1.032769,1552,1.8945
2047,1782079211.3241887,1.032799,1549,1.8909
2048,1782079211.3242178,1.032828,1547,1.8884
2049,1782079211.3242486,1.032859,1542,1.8823
2050,1782079211.3247418,1.033352,1535,1.8738
2051,1782079211.3248022,1.033413,1535,1.8738
2052,1782079211.3248613,1.033472,1530,1.8677
2053,1782079211.3254678,1.034078,1527,1.8640
2054,1782079211.3255184,1.034129,1527,1.8640
2055,1782079211.3259916,1.034602,1529,1.8665
2056,1782079211.3260887,1.034699,1531,1.8689
2057,1782079211.3261275,1.034738,1540,1.8799
2058,1782079211.326154,1.034765,1548,1.8896
2059,1782079211.3266304,1.035241,1552,1.8945
2060,1782079211.326688,1.035299,1570,1.9165
2061,1782079211.3267243,1.035335,1578,1.9263
2062,1782079211.326751,1.035362,1592,1.9434
2063,1782079211.3300188,1.038629,1601,1.9543
2064,1782079211.3300998,1.038710,1613,1.9690
2065,1782079211.3301358,1.038746,1622,1.9800
2066,1782079211.3301632,1.038774,1623,1.9812
2067,1782079211.3302178,1.038828,1633,1.9934
2068,1782079211.3302457,1.038856,1634,1.9946
2069,1782079211.330298,1.038908,1640,2.0020
2070,1782079211.330327,1.038938,1630,1.9897
2071,1782079211.330352,1.038963,1634,1.9946
2072,1782079211.3303802,1.038991,1637,1.9983
2073,1782079211.3304048,1.039015,1635,1.9958
2074,1782079211.331357,1.039968,1638,1.9995
2075,1782079211.3332028,1.041813,1651,2.0154
2076,1782079211.3332732,1.041884,1656,2.0215
2077,1782079211.333308,1.041919,1658,2.0239
2078,1782079211.3333378,1.041948,1660,2.0264
2079,1782079211.3333879,1.041998,1665,2.0325
2080,1782079211.333615,1.042226,1666,2.0337
2081,1782079211.334494,1.043105,1671,2.0398
2082,1782079211.3345788,1.043189,1675,2.0447
2083,1782079211.3351347,1.043745,1673,2.0422
2084,1782079211.3356497,1.044260,1675,2.0447
2085,1782079211.3360798,1.044690,1666,2.0337
2086,1782079211.336571,1.045182,1665,2.0325
2087,1782079211.337129,1.045740,1656,2.0215
2088,1782079211.3376741,1.046285,1653,2.0178
2089,1782079211.338208,1.046818,1637,1.9983
2090,1782079211.3386543,1.047265,1621,1.9788
2091,1782079211.3391006,1.047711,1603,1.9568
2092,1782079211.3396,1.048211,1588,1.9385
2093,1782079211.3400831,1.048694,1577,1.9250
2094,1782079211.3405807,1.049191,1562,1.9067
2095,1782079211.3410747,1.049685,1544,1.8848
2096,1782079211.3415563,1.050167,1525,1.8616
2097,1782079211.3420491,1.050660,1510,1.8433
2098,1782079211.342588,1.051198,1496,1.8262
2099,1782079211.3430724,1.051683,1487,1.8152
2100,1782079211.3441796,1.052790,1473,1.7981
2101,1782079211.3442142,1.052825,1464,1.7871
2102,1782079211.3445911,1.053202,1460,1.7822
2103,1782079211.3451173,1.053728,1448,1.7676
2104,1782079211.3486006,1.057211,1446,1.7651
2105,1782079211.3532603,1.061871,1445,1.7639
2106,1782079211.3535423,1.062153,1441,1.7590
2107,1782079211.3577986,1.066409,1439,1.7566
2108,1782079211.3578656,1.066476,1438,1.7554
2109,1782079211.3586385,1.067249,1442,1.7603
2110,1782079211.3592741,1.067885,1445,1.7639
2111,1782079211.359313,1.067924,1449,1.7688
2112,1782079211.3599298,1.068540,1453,1.7737
2113,1782079211.3599718,1.068582,1460,1.7822
2114,1782079211.360001,1.068612,1472,1.7969
2115,1782079211.3605943,1.069205,1480,1.8066
2116,1782079211.3606255,1.069236,1489,1.8176
2117,1782079211.3611097,1.069720,1500,1.8311
2118,1782079211.361272,1.069883,1514,1.8481
2119,1782079211.3645625,1.073173,1524,1.8604
2120,1782079211.3646092,1.073220,1534,1.8726
2121,1782079211.364646,1.073256,1547,1.8884
2122,1782079211.3646894,1.073300,1558,1.9019
2123,1782079211.3647246,1.073335,1572,1.9189
2124,1782079211.3647585,1.073369,1584,1.9336
2125,1782079211.364814,1.073425,1594,1.9458
2126,1782079211.3648555,1.073466,1606,1.9604
2127,1782079211.3649113,1.073522,1618,1.9751
2128,1782079211.3649557,1.073566,1624,1.9824
2129,1782079211.3649998,1.073610,1640,2.0020
2130,1782079211.3650346,1.073645,1647,2.0105
2131,1782079211.3650908,1.073701,1665,2.0325
2132,1782079211.3651268,1.073737,1668,2.0361
2133,1782079211.3675249,1.076135,1679,2.0496
2134,1782079211.3675704,1.076181,1678,2.0483
2135,1782079211.3676252,1.076236,1687,2.0593
2136,1782079211.3681269,1.076737,1688,2.0605
2137,1782079211.368168,1.076779,1693,2.0667
2138,1782079211.3682065,1.076817,1696,2.0703
2139,1782079211.3682613,1.076872,1699,2.0740
2140,1782079211.368303,1.076914,1706,2.0825
2141,1782079211.3683572,1.076968,1704,2.0801
2142,1782079211.3683937,1.077004,1705,2.0813
2143,1782079211.3689044,1.077515,1712,2.0898
2144,1782079211.3689425,1.077553,1719,2.0984
2145,1782079211.3689961,1.077607,1719,2.0984
2146,1782079211.3690379,1.077648,1720,2.0996
2147,1782079211.369091,1.077702,1717,2.0959
2148,1782079211.369226,1.077837,1715,2.0935
2149,1782079211.3693392,1.077950,1713,2.0911
2150,1782079211.3694518,1.078062,1712,2.0898
2151,1782079211.3695173,1.078128,1714,2.0923
2152,1782079211.3696282,1.078239,1718,2.0972
2153,1782079211.3710828,1.079693,1713,2.0911
2154,1782079211.3712077,1.079818,1719,2.0984
2155,1782079211.371667,1.080277,1719,2.0984
2156,1782079211.3717384,1.080349,1720,2.0996
2157,1782079211.3726132,1.081224,1720,2.0996
2158,1782079211.3726978,1.081308,1712,2.0898
2159,1782079211.373455,1.082066,1711,2.0886
2160,1782079211.3741817,1.082792,1711,2.0886
2161,1782079211.3742516,1.082862,1706,2.0825
2162,1782079211.3748858,1.083496,1707,2.0837
2163,1782079211.3755393,1.084150,1705,2.0813
2164,1782079211.379438,1.088048,1702,2.0776
2165,1782079211.379534,1.088145,1697,2.0715
2166,1782079211.3795862,1.088197,1691,2.0642
2167,1782079211.3796778,1.088288,1685,2.0569
2168,1782079211.379717,1.088328,1677,2.0471
2169,1782079211.37974,1.088351,1668,2.0361
2170,1782079211.3797874,1.088398,1659,2.0251
2171,1782079211.379836,1.088447,1646,2.0093
2172,1782079211.3798587,1.088469,1637,1.9983
2173,1782079211.3809607,1.089571,1630,1.9897
2174,1782079211.3832963,1.091907,1614,1.9702
2175,1782079211.3834052,1.092016,1603,1.9568
2176,1782079211.3834674,1.092078,1595,1.9470
2177,1782079211.383509,1.092119,1594,1.9458
2178,1782079211.3835573,1.092168,1587,1.9373
2179,1782079211.3836067,1.092217,1589,1.9397
2180,1782079211.3837838,1.092394,1587,1.9373
2181,1782079211.3841648,1.092775,1589,1.9397
2182,1782079211.3849318,1.093542,1594,1.9458
2183,1782079211.3851678,1.093778,1595,1.9470
2184,1782079211.3856823,1.094293,1592,1.9434
2185,1782079211.3862538,1.094864,1586,1.9360
2186,1782079211.3866491,1.095260,1577,1.9250
2187,1782079211.3872054,1.095816,1566,1.9116
2188,1782079211.3877265,1.096337,1553,1.8958
2189,1782079211.3882594,1.096870,1541,1.8811
2190,1782079211.388739,1.097350,1521,1.8567
2191,1782079211.3892443,1.097855,1505,1.8372
2192,1782079211.3897262,1.098337,1483,1.8103
2193,1782079211.390246,1.098856,1468,1.7920
2194,1782079211.3907511,1.099362,1452,1.7725
2195,1782079211.391242,1.099853,1437,1.7542
2196,1782079211.3917353,1.100346,1421,1.7346
2197,1782079211.3922274,1.100838,1413,1.7249
2198,1782079211.39275,1.101361,1401,1.7102
2199,1782079211.3932598,1.101870,1394,1.7017
2200,1782079211.3942723,1.102883,1394,1.7017
2201,1782079211.3943312,1.102942,1384,1.6895
2202,1782079211.3947337,1.103344,1389,1.6956
2203,1782079211.395272,1.103883,1389,1.6956
2204,1782079211.3980489,1.106659,1397,1.7053
2205,1782079211.4016447,1.110255,1407,1.7175
2206,1782079211.4035416,1.112152,1425,1.7395
2207,1782079211.4036524,1.112263,1435,1.7517
2208,1782079211.4042113,1.112822,1452,1.7725
2209,1782079211.404256,1.112867,1467,1.7908
2210,1782079211.4042785,1.112889,1485,1.8127
2211,1782079211.4042988,1.112909,1499,1.8298
2212,1782079211.4043171,1.112928,1512,1.8457
2213,1782079211.4055092,1.114120,1529,1.8665
2214,1782079211.4055398,1.114150,1539,1.8787
2215,1782079211.4055672,1.114178,1558,1.9019
2216,1782079211.4055939,1.114204,1571,1.9177
2217,1782079211.4060934,1.114704,1582,1.9312
2218,1782079211.4061189,1.114729,1584,1.9336
2219,1782079211.406145,1.114756,1600,1.9531
2220,1782079211.40659,1.115201,1614,1.9702
2221,1782079211.4066162,1.115227,1618,1.9751
2222,1782079211.4066355,1.115246,1622,1.9800
2223,1782079211.4070787,1.115689,1633,1.9934
2224,1782079211.4071023,1.115713,1638,1.9995
2225,1782079211.407121,1.115731,1641,2.0032
2226,1782079211.4071412,1.115752,1644,2.0068
2227,1782079211.407653,1.116264,1640,2.0020
2228,1782079211.407699,1.116310,1637,1.9983
2229,1782079211.4081867,1.116797,1623,1.9812
2230,1782079211.4108872,1.119498,1616,1.9727
2231,1782079211.4109192,1.119530,1606,1.9604
2232,1782079211.4109528,1.119563,1598,1.9507
2233,1782079211.4109793,1.119590,1583,1.9324
2234,1782079211.4110188,1.119629,1573,1.9202
2235,1782079211.4134614,1.122072,1557,1.9006
2236,1782079211.4134984,1.122109,1550,1.8921
2237,1782079211.4135466,1.122157,1533,1.8713
2238,1782079211.4142253,1.122836,1523,1.8591
2239,1782079211.4148397,1.123450,1513,1.8469
2240,1782079211.414889,1.123500,1504,1.8359
2241,1782079211.4149249,1.123535,1493,1.8225
2242,1782079211.4149463,1.123557,1481,1.8079
2243,1782079211.415467,1.124078,1482,1.8091
2244,1782079211.4160185,1.124629,1477,1.8030
2245,1782079211.4165373,1.125148,1477,1.8030
2246,1782079211.4170995,1.125710,1476,1.8018
2247,1782079211.417696,1.126307,1477,1.8030
2248,1782079211.417756,1.126367,1481,1.8079
2249,1782079211.4183512,1.126962,1483,1.8103
2250,1782079211.4200807,1.128691,1485,1.8127
2251,1782079211.4201484,1.128759,1492,1.8213
2252,1782079211.420194,1.128804,1500,1.8311
2253,1782079211.4202247,1.128835,1508,1.8408
2254,1782079211.4226713,1.131282,1516,1.8506
2255,1782079211.4227526,1.131363,1532,1.8701
2256,1782079211.4227917,1.131402,1542,1.8823
2257,1782079211.422821,1.131432,1553,1.8958
2258,1782079211.4228752,1.131486,1561,1.9055
2259,1782079211.4239116,1.132522,1569,1.9153
2260,1782079211.4257736,1.134384,1583,1.9324
2261,1782079211.4258392,1.134450,1586,1.9360
2262,1782079211.4258776,1.134488,1599,1.9519
2263,1782079211.4259036,1.134514,1595,1.9470
2264,1782079211.4259403,1.134551,1603,1.9568
2265,1782079211.4262667,1.134877,1610,1.9653
2266,1782079211.4268143,1.135425,1607,1.9617
2267,1782079211.4273124,1.135923,1611,1.9666
2268,1782079211.427826,1.136436,1612,1.9678
2269,1782079211.4283154,1.136926,1619,1.9763
2270,1782079211.4288335,1.137444,1611,1.9666
2271,1782079211.429333,1.137944,1608,1.9629
2272,1782079211.429833,1.138443,1608,1.9629
2273,1782079211.4303262,1.138937,1601,1.9543
2274,1782079211.430839,1.139450,1590,1.9409
2275,1782079211.431342,1.139952,1581,1.9299
2276,1782079211.4318233,1.140434,1572,1.9189
2277,1782079211.4322975,1.140908,1566,1.9116
2278,1782079211.4328256,1.141436,1555,1.8982
2279,1782079211.4332488,1.141859,1554,1.8970
2280,1782079211.433755,1.142365,1543,1.8835
2281,1782079211.4342175,1.142828,1532,1.8701
2282,1782079211.435528,1.144139,1525,1.8616
2283,1782079211.4356277,1.144238,1521,1.8567
2284,1782079211.4359357,1.144546,1516,1.8506
2285,1782079211.436252,1.144863,1509,1.8420
2286,1782079211.436764,1.145375,1500,1.8311
2287,1782079211.4372444,1.145855,1483,1.8103
2288,1782079211.4377623,1.146373,1469,1.7932
2289,1782079211.4386737,1.147284,1455,1.7761
2290,1782079211.4443223,1.152933,1440,1.7578
2291,1782079211.4464924,1.155103,1427,1.7419
2292,1782079211.4473839,1.155994,1409,1.7200
2293,1782079211.4511688,1.159779,1398,1.7065
2294,1782079211.451224,1.159835,1382,1.6870
2295,1782079211.4512734,1.159884,1369,1.6711
2296,1782079211.451324,1.159935,1355,1.6541
2297,1782079211.4513557,1.159966,1345,1.6418
2298,1782079211.4513786,1.159989,1331,1.6248
2299,1782079211.4514165,1.160027,1320,1.6113
2300,1782079211.4529548,1.161565,1306,1.5942
2301,1782079211.4552097,1.163820,1285,1.5686
2302,1782079211.4552824,1.163893,1277,1.5588
2303,1782079211.4553237,1.163934,1269,1.5491
2304,1782079211.4560125,1.164623,1252,1.5283
2305,1782079211.4561028,1.164713,1243,1.5173
2306,1782079211.456154,1.164765,1230,1.5015
2307,1782079211.4568272,1.165438,1229,1.5002
2308,1782079211.456882,1.165493,1224,1.4941
2309,1782079211.4569106,1.165521,1218,1.4868
2310,1782079211.4569545,1.165565,1212,1.4795
2311,1782079211.456991,1.165601,1214,1.4819
2312,1782079211.457018,1.165628,1212,1.4795
2313,1782079211.4574625,1.166073,1212,1.4795
2314,1782079211.4575243,1.166135,1217,1.4856
2315,1782079211.4576077,1.166218,1215,1.4832
2316,1782079211.457657,1.166268,1220,1.4893
2317,1782079211.4576914,1.166302,1230,1.5015
2318,1782079211.457716,1.166327,1236,1.5088
2319,1782079211.458163,1.166774,1248,1.5234
2320,1782079211.4582362,1.166847,1264,1.5430
2321,1782079211.4587343,1.167345,1276,1.5576
2322,1782079211.4588249,1.167435,1291,1.5759
2323,1782079211.458855,1.167465,1301,1.5881
2324,1782079211.458885,1.167495,1318,1.6089
2325,1782079211.458909,1.167520,1334,1.6284
2326,1782079211.4593666,1.167977,1347,1.6443
2327,1782079211.459425,1.168036,1368,1.6699
2328,1782079211.4594648,1.168075,1390,1.6968
2329,1782079211.4594934,1.168104,1410,1.7212
2330,1782079211.4595213,1.168132,1430,1.7456
2331,1782079211.4595437,1.168154,1449,1.7688
2332,1782079211.460021,1.168632,1459,1.7810
2333,1782079211.4605165,1.169127,1478,1.8042
2334,1782079211.4638958,1.172506,1481,1.8079
2335,1782079211.463955,1.172565,1480,1.8066
2336,1782079211.4639819,1.172592,1484,1.8115
2337,1782079211.4640038,1.172614,1483,1.8103
2338,1782079211.4640331,1.172644,1479,1.8054
2339,1782079211.4640565,1.172667,1477,1.8030
2340,1782079211.4642248,1.172835,1473,1.7981
2341,1782079211.464319,1.172930,1461,1.7834
2342,1782079211.4672484,1.175859,1462,1.7847
2343,1782079211.4673324,1.175943,1453,1.7737
2344,1782079211.4673584,1.175969,1444,1.7627
2345,1782079211.4673777,1.175988,1436,1.7529
2346,1782079211.467396,1.176007,1431,1.7468
2347,1782079211.467442,1.176053,1418,1.7310
2348,1782079211.4678369,1.176447,1417,1.7297
2349,1782079211.4687076,1.177318,1404,1.7139
2350,1782079211.4688683,1.177479,1402,1.7114
2351,1782079211.469339,1.177949,1403,1.7126
2352,1782079211.4698792,1.178490,1401,1.7102
2353,1782079211.4703808,1.178991,1402,1.7114
2354,1782079211.4708781,1.179489,1411,1.7224
2355,1782079211.4713147,1.179925,1416,1.7285
2356,1782079211.4718213,1.180432,1412,1.7236
2357,1782079211.4723508,1.180961,1420,1.7334
2358,1782079211.4729128,1.181523,1415,1.7273
2359,1782079211.4734628,1.182073,1412,1.7236
2360,1782079211.4738493,1.182460,1409,1.7200
2361,1782079211.4744456,1.183056,1399,1.7078
2362,1782079211.4749353,1.183546,1402,1.7114
2363,1782079211.4754071,1.184018,1396,1.7041
2364,1782079211.4759092,1.184520,1389,1.6956
2365,1782079211.4764354,1.185046,1385,1.6907
2366,1782079211.4769301,1.185541,1379,1.6833
2367,1782079211.47788,1.186491,1366,1.6675
2368,1782079211.4779875,1.186598,1360,1.6602
2369,1782079211.478459,1.187069,1352,1.6504
2370,1782079211.478974,1.187585,1335,1.6296
2371,1782079211.4856186,1.194229,1321,1.6125
2372,1782079211.4901514,1.198762,1301,1.5881
2373,1782079211.4906764,1.199287,1290,1.5747
2374,1782079211.4911697,1.199780,1277,1.5588
2375,1782079211.4950638,1.203674,1260,1.5381
2376,1782079211.4976838,1.206294,1239,1.5125
2377,1782079211.4977436,1.206354,1227,1.4978
2378,1782079211.497774,1.206384,1214,1.4819
2379,1782079211.4982102,1.206821,1194,1.4575
2380,1782079211.498289,1.206900,1177,1.4368
2381,1782079211.4983277,1.206938,1157,1.4124
2382,1782079211.4983788,1.206989,1134,1.3843
2383,1782079211.4989052,1.207516,1114,1.3599
2384,1782079211.4993896,1.208000,1082,1.3208
2385,1782079211.4994483,1.208059,1068,1.3037
2386,1782079211.499477,1.208087,1047,1.2781
2387,1782079211.4999204,1.208531,1042,1.2720
2388,1782079211.499998,1.208609,1039,1.2683
2389,1782079211.5000362,1.208647,1040,1.2695
2390,1782079211.500062,1.208673,1045,1.2756
2391,1782079211.5004804,1.209091,1051,1.2830
2392,1782079211.5005443,1.209155,1052,1.2842
2393,1782079211.5005853,1.209196,1058,1.2915
2394,1782079211.500608,1.209219,1062,1.2964
2395,1782079211.5006292,1.209240,1072,1.3086
2396,1782079211.5006766,1.209287,1083,1.3220
2397,1782079211.5014417,1.210052,1087,1.3269
2398,1782079211.501507,1.210118,1104,1.3477
2399,1782079211.5015454,1.210156,1118,1.3647
2400,1782079211.5015695,1.210180,1128,1.3770
2401,1782079211.5020301,1.210641,1141,1.3928
2402,1782079211.502087,1.210698,1144,1.3965
2403,1782079211.502117,1.210727,1150,1.4038
2404,1782079211.5070784,1.215689,1161,1.4172
2405,1782079211.5071516,1.215762,1165,1.4221
2406,1782079211.5071774,1.215788,1184,1.4453
2407,1782079211.5072095,1.215820,1185,1.4465
2408,1782079211.507347,1.215958,1203,1.4685
2409,1782079211.5074553,1.216066,1205,1.4709
2410,1782079211.507484,1.216094,1222,1.4917
2411,1782079211.50751,1.216120,1228,1.4990
2412,1782079211.5075395,1.216150,1240,1.5137
2413,1782079211.5075634,1.216174,1245,1.5198
2414,1782079211.5075858,1.216196,1259,1.5369
2415,1782079211.5076315,1.216242,1260,1.5381
2416,1782079211.5076616,1.216272,1268,1.5479
2417,1782079211.5076816,1.216292,1264,1.5430
2418,1782079211.5077035,1.216314,1266,1.5454
2419,1782079211.5078487,1.216459,1259,1.5369
2420,1782079211.5078912,1.216502,1256,1.5332
2421,1782079211.507929,1.216540,1241,1.5149
2422,1782079211.5080135,1.216624,1236,1.5088
2423,1782079211.5080898,1.216700,1223,1.4929
2424,1782079211.50816,1.216771,1208,1.4746
2425,1782079211.5081856,1.216796,1207,1.4734
2426,1782079211.5091136,1.217724,1201,1.4661
2427,1782079211.5092275,1.217838,1195,1.4587
2428,1782079211.5110724,1.219683,1190,1.4526
2429,1782079211.5111291,1.219740,1186,1.4478
2430,1782079211.5111578,1.219768,1188,1.4502
2431,1782079211.5111997,1.219810,1181,1.4417
2432,1782079211.5113509,1.219961,1180,1.4404
2433,1782079211.5114002,1.220011,1175,1.4343
2434,1782079211.511435,1.220046,1177,1.4368
2435,1782079211.5115433,1.220154,1178,1.4380
2436,1782079211.5119004,1.220511,1187,1.4490
2437,1782079211.5125518,1.221162,1188,1.4502
2438,1782079211.5130494,1.221660,1204,1.4697
2439,1782079211.513431,1.222042,1225,1.4954
2440,1782079211.5139494,1.222560,1250,1.5259
2441,1782079211.514416,1.223027,1278,1.5601
2442,1782079211.5149727,1.223583,1308,1.5967
2443,1782079211.5154717,1.224082,1338,1.6333
2444,1782079211.5159647,1.224575,1370,1.6724
2445,1782079211.516551,1.225162,1396,1.7041
2446,1782079211.5169418,1.225552,1436,1.7529
2447,1782079211.517456,1.226067,1460,1.7822
2448,1782079211.5179257,1.226536,1504,1.8359
2449,1782079211.518442,1.227052,1526,1.8628
2450,1782079211.5189404,1.227551,1552,1.8945
2451,1782079211.5203054,1.228916,1571,1.9177
2452,1782079211.520395,1.229006,1576,1.9238
2453,1782079211.52043,1.229041,1580,1.9287
2454,1782079211.5210683,1.229679,1583,1.9324
2455,1782079211.5216436,1.230254,1568,1.9141
2456,1782079211.5222418,1.230852,1551,1.8933
2457,1782079211.5224032,1.231014,1529,1.8665
2458,1782079211.5303535,1.238964,1509,1.8420
2459,1782079211.5304332,1.239044,1483,1.8103
2460,1782079211.5313756,1.239986,1457,1.7786
2461,1782079211.5318365,1.240447,1427,1.7419
2462,1782079211.5331767,1.241787,1399,1.7078
2463,1782079211.5349276,1.243538,1373,1.6760
2464,1782079211.5349758,1.243586,1350,1.6479
2465,1782079211.5350037,1.243614,1308,1.5967
2466,1782079211.5350375,1.243648,1286,1.5698
2467,1782079211.5350592,1.243670,1264,1.5430
2468,1782079211.535081,1.243691,1233,1.5051
2469,1782079211.5351274,1.243738,1207,1.4734
2470,1782079211.5357642,1.244375,1184,1.4453
2471,1782079211.536898,1.245508,1169,1.4270
2472,1782079211.539152,1.247762,1143,1.3953
2473,1782079211.539223,1.247833,1130,1.3794
2474,1782079211.5397983,1.248409,1109,1.3538
2475,1782079211.5398486,1.248459,1094,1.3354
2476,1782079211.5398755,1.248486,1079,1.3171
2477,1782079211.5402987,1.248909,1068,1.3037
2478,1782079211.5403562,1.248967,1061,1.2952
2479,1782079211.5403953,1.249006,1050,1.2817
2480,1782079211.540422,1.249032,1042,1.2720
2481,1782079211.5404818,1.249092,1039,1.2683
2482,1782079211.540509,1.249120,1030,1.2573
2483,1782079211.541099,1.249710,1024,1.2500
2484,1782079211.5411665,1.249777,1018,1.2427
2485,1782079211.5411944,1.249805,1010,1.2329
2486,1782079211.5412245,1.249835,1010,1.2329
2487,1782079211.5412467,1.249857,999,1.2195
2488,1782079211.5412707,1.249881,999,1.2195
2489,1782079211.5417423,1.250353,994,1.2134
2490,1782079211.541792,1.250402,1004,1.2256
2491,1782079211.5418198,1.250430,1019,1.2439
2492,1782079211.5423973,1.251008,1042,1.2720
2493,1782079211.542571,1.251182,1077,1.3147
2494,1782079211.543062,1.251673,1104,1.3477
2495,1782079211.5431347,1.251745,1137,1.3879
2496,1782079211.5431774,1.251788,1178,1.4380
2497,1782079211.5431998,1.251810,1205,1.4709
2498,1782079211.5432205,1.251831,1245,1.5198
2499,1782079211.5438092,1.252420,1272,1.5527
2500,1782079211.5465856,1.255196,1297,1.5833
2501,1782079211.5466485,1.255259,1315,1.6052
2502,1782079211.5466888,1.255299,1334,1.6284
2503,1782079211.5467181,1.255329,1346,1.6431
2504,1782079211.546747,1.255358,1367,1.6687
2505,1782079211.54677,1.255381,1380,1.6846
2506,1782079211.5470057,1.255616,1390,1.6968
2507,1782079211.5478585,1.256469,1399,1.7078
2508,1782079211.5496354,1.258246,1406,1.7163
2509,1782079211.5497217,1.258332,1413,1.7249
2510,1782079211.5497591,1.258370,1419,1.7322
2511,1782079211.5497854,1.258396,1421,1.7346
2512,1782079211.5499966,1.258607,1427,1.7419
2513,1782079211.5508041,1.259415,1423,1.7371
2514,1782079211.5510056,1.259616,1422,1.7358
2515,1782079211.551553,1.260164,1407,1.7175
2516,1782079211.5520518,1.260662,1391,1.6980
2517,1782079211.552486,1.261096,1375,1.6785
2518,1782079211.5529633,1.261574,1355,1.6541
2519,1782079211.5535073,1.262118,1322,1.6138
2520,1782079211.554177,1.262788,1297,1.5833
2521,1782079211.554533,1.263144,1270,1.5503
2522,1782079211.5549858,1.263596,1239,1.5125
2523,1782079211.5555148,1.264125,1208,1.4746
2524,1782079211.556025,1.264636,1188,1.4502
2525,1782079211.5565205,1.265131,1165,1.4221
2526,1782079211.557049,1.265660,1151,1.4050
2527,1782079211.5575485,1.266159,1130,1.3794
2528,1782079211.5579662,1.266577,1117,1.3635
2529,1782079211.5585823,1.267193,1102,1.3452
2530,1782079211.5589814,1.267592,1103,1.3464
2531,1782079211.560025,1.268636,1090,1.3306
2532,1782079211.5600753,1.268686,1083,1.3220
2533,1782079211.5605657,1.269176,1080,1.3184
2534,1782079211.561026,1.269637,1077,1.3147
2535,1782079211.5686147,1.277225,1084,1.3232
2536,1782079211.5686712,1.277282,1090,1.3306
2537,1782079211.5690837,1.277694,1104,1.3477
2538,1782079211.5694258,1.278036,1115,1.3611
2539,1782079211.5695398,1.278150,1138,1.3892
2540,1782079211.5697052,1.278316,1156,1.4111
2541,1782079211.5697649,1.278375,1173,1.4319
2542,1782079211.5699172,1.278528,1193,1.4563
2543,1782079211.5699904,1.278601,1216,1.4844
2544,1782079211.5715625,1.280173,1245,1.5198
2545,1782079211.576334,1.284945,1271,1.5515
2546,1782079211.5764537,1.285064,1297,1.5833
2547,1782079211.5765686,1.285179,1324,1.6162
2548,1782079211.5766113,1.285222,1354,1.6528
2549,1782079211.5766385,1.285249,1384,1.6895
2550,1782079211.5766876,1.285298,1403,1.7126
2551,1782079211.579227,1.287838,1424,1.7383
2552,1782079211.5792918,1.287902,1442,1.7603
2553,1782079211.5793357,1.287946,1452,1.7725
2554,1782079211.57983,1.288440,1459,1.7810
2555,1782079211.5798943,1.288505,1455,1.7761
2556,1782079211.5799234,1.288534,1450,1.7700
2557,1782079211.57997,1.288580,1430,1.7456
2558,1782079211.5804117,1.289022,1424,1.7383
2559,1782079211.5804868,1.289097,1406,1.7163
2560,1782079211.5805166,1.289127,1402,1.7114
2561,1782079211.580558,1.289169,1397,1.7053
2562,1782079211.5805905,1.289201,1398,1.7065
2563,1782079211.5806122,1.289223,1400,1.7090
2564,1782079211.580635,1.289246,1394,1.7017
2565,1782079211.581075,1.289685,1392,1.6992
2566,1782079211.5811315,1.289742,1389,1.6956
2567,1782079211.5811594,1.289770,1375,1.6785
2568,1782079211.5811875,1.289798,1359,1.6589
2569,1782079211.5812106,1.289821,1336,1.6309
2570,1782079211.5816782,1.290289,1311,1.6003
2571,1782079211.5817392,1.290350,1286,1.5698
2572,1782079211.5821574,1.290768,1261,1.5393
2573,1782079211.5822444,1.290855,1232,1.5039
2574,1782079211.5822823,1.290893,1200,1.4648
2575,1782079211.5823133,1.290924,1167,1.4246
2576,1782079211.5823367,1.290947,1141,1.3928
2577,1782079211.5828087,1.291419,1126,1.3745
2578,1782079211.5833156,1.291926,1101,1.3440
2579,1782079211.5859728,1.294583,1086,1.3257
2580,1782079211.586047,1.294657,1068,1.3037
2581,1782079211.5860865,1.294697,1046,1.2769
2582,1782079211.5861819,1.294792,1035,1.2634
2583,1782079211.5862584,1.294869,1025,1.2512
2584,1782079211.5863113,1.294922,1021,1.2463
2585,1782079211.586492,1.295103,1014,1.2378
2586,1782079211.5870223,1.295633,1021,1.2463
2587,1782079211.5887482,1.297359,1021,1.2463
2588,1782079211.5911496,1.299760,1033,1.2610
2589,1782079211.5912755,1.299886,1048,1.2793
2590,1782079211.59134,1.299951,1060,1.2939
2591,1782079211.591391,1.300002,1077,1.3147
2592,1782079211.5914435,1.300054,1089,1.3293
2593,1782079211.5914886,1.300099,1102,1.3452
2594,1782079211.5915613,1.300172,1109,1.3538
2595,1782079211.5916126,1.300223,1105,1.3489
2596,1782079211.5926063,1.301217,1111,1.3562
2597,1782079211.5926673,1.301278,1105,1.3489
2598,1782079211.5931175,1.301728,1092,1.3330
2599,1782079211.5935996,1.302210,1088,1.3281
2600,1782079211.5941143,1.302725,1081,1.3196
2601,1782079211.594604,1.303215,1080,1.3184
2602,1782079211.5951169,1.303727,1076,1.3135
2603,1782079211.5956154,1.304226,1080,1.3184
2604,1782079211.5961206,1.304731,1078,1.3159
2605,1782079211.5966039,1.305214,1086,1.3257
2606,1782079211.5971062,1.305717,1104,1.3477
2607,1782079211.597603,1.306214,1130,1.3794
2608,1782079211.598074,1.306684,1155,1.4099
2609,1782079211.5986001,1.307211,1189,1.4514
2610,1782079211.5990894,1.307700,1220,1.4893
2611,1782079211.5999339,1.308544,1243,1.5173
2612,1782079211.600009,1.308619,1272,1.5527
2613,1782079211.6006498,1.309260,1284,1.5674
2614,1782079211.602724,1.311335,1302,1.5894
2615,1782079211.6028101,1.311421,1312,1.6016
2616,1782079211.6028438,1.311454,1321,1.6125
2617,1782079211.602874,1.311485,1318,1.6089
2618,1782079211.6037855,1.312396,1318,1.6089
2619,1782079211.6112068,1.319817,1313,1.6028
2620,1782079211.6112847,1.319895,1316,1.6064
2621,1782079211.6124501,1.321061,1322,1.6138
2622,1782079211.6124878,1.321098,1317,1.6077
2623,1782079211.6125114,1.321122,1324,1.6162
2624,1782079211.6125352,1.321146,1323,1.6150
2625,1782079211.6125565,1.321167,1321,1.6125
2626,1782079211.612583,1.321193,1309,1.5979
2627,1782079211.6131387,1.321749,1306,1.5942
2628,1782079211.6131704,1.321781,1294,1.5796
2629,1782079211.6131926,1.321803,1295,1.5808
2630,1782079211.6137059,1.322316,1286,1.5698
2631,1782079211.6137297,1.322340,1275,1.5564
2632,1782079211.6137502,1.322361,1276,1.5576
2633,1782079211.6142194,1.322830,1270,1.5503
2634,1782079211.6142464,1.322857,1272,1.5527
2635,1782079211.6142657,1.322876,1277,1.5588
2636,1782079211.6147668,1.323377,1283,1.5662
2637,1782079211.614792,1.323403,1300,1.5869
2638,1782079211.615269,1.323879,1313,1.6028
2639,1782079211.6152966,1.323907,1320,1.6113
2640,1782079211.6153162,1.323927,1331,1.6248
2641,1782079211.6179574,1.326568,1338,1.6333
2642,1782079211.618006,1.326617,1340,1.6357
2643,1782079211.6180346,1.326645,1344,1.6406
2644,1782079211.6180634,1.326674,1341,1.6370
2645,1782079211.6180885,1.326699,1332,1.6260
2646,1782079211.6181326,1.326743,1318,1.6089
2647,1782079211.6181595,1.326770,1306,1.5942
2648,1782079211.6182036,1.326814,1280,1.5625
2649,1782079211.6193924,1.328003,1256,1.5332
2650,1782079211.6202443,1.328855,1219,1.4880
2651,1782079211.6202896,1.328900,1184,1.4453
2652,1782079211.6233542,1.331965,1147,1.4001
2653,1782079211.6234262,1.332037,1111,1.3562
2654,1782079211.623966,1.332577,1072,1.3086
2655,1782079211.624026,1.332637,1033,1.2610
2656,1782079211.6240993,1.332710,992,1.2109
2657,1782079211.624136,1.332747,954,1.1646
2658,1782079211.6245978,1.333208,916,1.1182
2659,1782079211.6246529,1.333263,881,1.0754
2660,1782079211.6247036,1.333314,849,1.0364
2661,1782079211.6247475,1.333358,828,1.0107
2662,1782079211.625244,1.333854,814,0.9937
2663,1782079211.6257756,1.334386,801,0.9778
2664,1782079211.6262803,1.334891,800,0.9766
2665,1782079211.6267743,1.335385,798,0.9741
2666,1782079211.6273165,1.335927,803,0.9802
2667,1782079211.629997,1.338608,819,0.9998
2668,1782079211.6301074,1.338718,836,1.0205
2669,1782079211.6301436,1.338754,856,1.0449
2670,1782079211.6301677,1.338778,880,1.0742
2671,1782079211.6301908,1.338801,901,1.0999
2672,1782079211.6302164,1.338827,930,1.1353
2673,1782079211.631272,1.339883,958,1.1694
2674,1782079211.633142,1.341753,989,1.2073
2675,1782079211.6332014,1.341812,1025,1.2512
2676,1782079211.633233,1.341844,1056,1.2891
2677,1782079211.6332562,1.341867,1093,1.3342
2678,1782079211.6333017,1.341912,1134,1.3843
2679,1782079211.6336343,1.342245,1186,1.4478
2680,1782079211.6342628,1.342873,1235,1.5076
2681,1782079211.6347718,1.343382,1292,1.5771
2682,1782079211.6352105,1.343821,1347,1.6443
2683,1782079211.6357286,1.344339,1407,1.7175
2684,1782079211.6361368,1.344747,1458,1.7798
2685,1782079211.6366634,1.345274,1510,1.8433
2686,1782079211.637139,1.345750,1551,1.8933
2687,1782079211.6376443,1.346255,1599,1.9519
2688,1782079211.6381478,1.346758,1637,1.9983
2689,1782079211.638634,1.347245,1662,2.0288
2690,1782079211.6391196,1.347730,1686,2.0581
2691,1782079211.639633,1.348243,1698,2.0728
2692,1782079211.6401677,1.348778,1709,2.0862
2693,1782079211.6405904,1.349201,1703,2.0789
2694,1782079211.64113,1.349741,1689,2.0618
2695,1782079211.6416137,1.350224,1668,2.0361
2696,1782079211.6421304,1.350741,1642,2.0044
2697,1782079211.6426325,1.351243,1611,1.9666
2698,1782079211.64313,1.351741,1561,1.9055
2699,1782079211.6436105,1.352221,1516,1.8506
2700,1782079211.644419,1.353029,1463,1.7859
2701,1782079211.6446073,1.353218,1408,1.7188
2702,1782079211.6451283,1.353739,1364,1.6650
2703,1782079211.6456075,1.354218,1316,1.6064
2704,1782079211.646329,1.354939,1276,1.5576
2705,1782079211.6576,1.366210,1245,1.5198
2706,1782079211.6576688,1.366279,1211,1.4783
