sample_index,timestamp_unix,elapsed_seconds,raw_value,voltage
0,1782079237.7593713,0.002113,1376,1.6797
1,1782079237.7594328,0.002175,1379,1.6833
2,1782079237.7594907,0.002233,1379,1.6833
3,1782079237.7595274,0.002270,1378,1.6821
4,1782079237.7595873,0.002329,1378,1.6821
5,1782079237.76037,0.003112,1383,1.6882
6,1782079237.7611525,0.003895,1378,1.6821
7,1782079237.7611973,0.003939,1388,1.6943
8,1782079237.761923,0.004665,1384,1.6895
9,1782079237.7626517,0.005394,1387,1.6931
10,1782079237.7626843,0.005426,1391,1.6980
11,1782079237.763439,0.006181,1382,1.6870
12,1782079237.7637694,0.006511,1386,1.6919
13,1782079237.7685373,0.011279,1386,1.6919
14,1782079237.7686684,0.011410,1390,1.6968
15,1782079237.7687883,0.011530,1383,1.6882
16,1782079237.768837,0.011579,1390,1.6968
17,1782079237.7688982,0.011640,1386,1.6919
18,1782079237.7689455,0.011688,1384,1.6895
19,1782079237.768988,0.011730,1377,1.6809
20,1782079237.769043,0.011785,1382,1.6870
21,1782079237.7691195,0.011862,1381,1.6858
22,1782079237.7691615,0.011904,1377,1.6809
23,1782079237.7692056,0.011948,1372,1.6748
24,1782079237.7710266,0.013769,1372,1.6748
25,1782079237.7711482,0.013890,1374,1.6772
26,1782079237.7712224,0.013964,1368,1.6699
27,1782079237.7712662,0.014008,1363,1.6638
28,1782079237.7716117,0.014354,1361,1.6614
29,1782079237.7724407,0.015183,1361,1.6614
30,1782079237.772628,0.015370,1362,1.6626
31,1782079237.773099,0.015841,1364,1.6650
32,1782079237.7736168,0.016359,1359,1.6589
33,1782079237.7741215,0.016864,1361,1.6614
34,1782079237.7746158,0.017358,1360,1.6602
35,1782079237.775136,0.017878,1364,1.6650
36,1782079237.7756753,0.018417,1368,1.6699
37,1782079237.776148,0.018890,1362,1.6626
38,1782079237.776671,0.019413,1364,1.6650
39,1782079237.7772093,0.019951,1364,1.6650
40,1782079237.777684,0.020426,1375,1.6785
41,1782079237.7781858,0.020928,1366,1.6675
42,1782079237.7786653,0.021407,1373,1.6760
43,1782079237.7791274,0.021869,1375,1.6785
44,1782079237.7796814,0.022424,1375,1.6785
45,1782079237.7801018,0.022844,1384,1.6895
46,1782079237.780612,0.023354,1380,1.6846
47,1782079237.7811275,0.023870,1384,1.6895
48,1782079237.7816546,0.024397,1382,1.6870
49,1782079237.7827592,0.025501,1381,1.6858
50,1782079237.7828596,0.025602,1382,1.6870
51,1782079237.7831643,0.025906,1388,1.6943
52,1782079237.7837105,0.026453,1383,1.6882
53,1782079237.7841816,0.026924,1383,1.6882
54,1782079237.785274,0.028016,1384,1.6895
55,1782079237.7919996,0.034742,1381,1.6858
56,1782079237.7933216,0.036064,1383,1.6882
57,1782079237.7933893,0.036131,1382,1.6870
58,1782079237.7936554,0.036397,1380,1.6846
59,1782079237.7937124,0.036454,1378,1.6821
60,1782079237.7939448,0.036687,1374,1.6772
61,1782079237.7949393,0.037681,1375,1.6785
62,1782079237.794983,0.037725,1374,1.6772
63,1782079237.7950087,0.037751,1370,1.6724
64,1782079237.795036,0.037778,1372,1.6748
65,1782079237.7955093,0.038251,1366,1.6675
66,1782079237.79637,0.039112,1369,1.6711
67,1782079237.7964063,0.039148,1361,1.6614
68,1782079237.7972987,0.040041,1364,1.6650
69,1782079237.7983801,0.041122,1359,1.6589
70,1782079237.7993398,0.042082,1357,1.6565
71,1782079237.80009,0.042832,1360,1.6602
72,1782079237.800211,0.042953,1361,1.6614
73,1782079237.8008306,0.043573,1360,1.6602
74,1782079237.803474,0.046216,1356,1.6553
75,1782079237.8035166,0.046259,1361,1.6614
76,1782079237.8035645,0.046307,1351,1.6492
77,1782079237.8035946,0.046337,1356,1.6553
78,1782079237.803636,0.046378,1357,1.6565
79,1782079237.8036625,0.046405,1365,1.6663
80,1782079237.8037171,0.046459,1363,1.6638
81,1782079237.8037841,0.046526,1363,1.6638
82,1782079237.803827,0.046569,1368,1.6699
83,1782079237.803869,0.046611,1369,1.6711
84,1782079237.8038957,0.046638,1372,1.6748
85,1782079237.8061829,0.048925,1376,1.6797
86,1782079237.806216,0.048958,1375,1.6785
87,1782079237.8062425,0.048985,1376,1.6797
88,1782079237.8067112,0.049453,1381,1.6858
89,1782079237.8067412,0.049483,1382,1.6870
90,1782079237.8067677,0.049510,1388,1.6943
91,1782079237.8068113,0.049553,1387,1.6931
92,1782079237.8068411,0.049583,1388,1.6943
93,1782079237.8068635,0.049606,1388,1.6943
94,1782079237.806902,0.049644,1392,1.6992
95,1782079237.8069296,0.049672,1392,1.6992
96,1782079237.8069527,0.049695,1391,1.6980
97,1782079237.8073835,0.050126,1393,1.7004
98,1782079237.8074164,0.050159,1387,1.6931
99,1782079237.807452,0.050194,1393,1.7004
100,1782079237.807911,0.050653,1387,1.6931
101,1782079237.808411,0.051153,1385,1.6907
102,1782079237.8088746,0.051617,1382,1.6870
103,1782079237.809338,0.052080,1381,1.6858
104,1782079237.8097956,0.052538,1367,1.6687
105,1782079237.810504,0.053246,1372,1.6748
106,1782079237.813154,0.055896,1371,1.6736
107,1782079237.813197,0.055939,1364,1.6650
108,1782079237.8132267,0.055969,1367,1.6687
109,1782079237.8132703,0.056012,1362,1.6626
110,1782079237.8132977,0.056040,1358,1.6577
111,1782079237.813322,0.056064,1356,1.6553
112,1782079237.813707,0.056449,1352,1.6504
113,1782079237.8164775,0.059220,1355,1.6541
114,1782079237.8165984,0.059340,1351,1.6492
115,1782079237.8166852,0.059427,1349,1.6467
116,1782079237.8167315,0.059474,1352,1.6504
117,1782079237.8167725,0.059515,1349,1.6467
118,1782079237.8168309,0.059573,1351,1.6492
119,1782079237.8172035,0.059946,1353,1.6516
120,1782079237.817954,0.060696,1359,1.6589
121,1782079237.8181875,0.060930,1357,1.6565
122,1782079237.8186827,0.061425,1357,1.6565
123,1782079237.8191938,0.061936,1359,1.6589
124,1782079237.819683,0.062425,1363,1.6638
125,1782079237.8201923,0.062934,1364,1.6650
126,1782079237.8207176,0.063460,1367,1.6687
127,1782079237.8211966,0.063939,1370,1.6724
128,1782079237.8217115,0.064454,1371,1.6736
129,1782079237.8221917,0.064934,1372,1.6748
130,1782079237.8227093,0.065451,1374,1.6772
131,1782079237.8232095,0.065952,1379,1.6833
132,1782079237.8237092,0.066451,1383,1.6882
133,1782079237.824218,0.066960,1382,1.6870
134,1782079237.8247125,0.067455,1385,1.6907
135,1782079237.82527,0.068012,1383,1.6882
136,1782079237.8257246,0.068467,1382,1.6870
137,1782079237.8262236,0.068966,1383,1.6882
138,1782079237.8292327,0.071975,1388,1.6943
139,1782079237.8345194,0.077261,1384,1.6895
140,1782079237.834688,0.077430,1379,1.6833
141,1782079237.8368423,0.079584,1379,1.6833
142,1782079237.8368797,0.079622,1378,1.6821
143,1782079237.8373492,0.080091,1373,1.6760
144,1782079237.8373826,0.080125,1369,1.6711
145,1782079237.8374064,0.080148,1364,1.6650
146,1782079237.8374307,0.080173,1361,1.6614
147,1782079237.8378508,0.080593,1366,1.6675
148,1782079237.8378856,0.080628,1359,1.6589
149,1782079237.838295,0.081037,1358,1.6577
150,1782079237.8383267,0.081069,1348,1.6455
151,1782079237.8387132,0.081455,1351,1.6492
152,1782079237.8387434,0.081486,1349,1.6467
153,1782079237.839129,0.081871,1354,1.6528
154,1782079237.8391564,0.081898,1349,1.6467
155,1782079237.842186,0.084928,1352,1.6504
156,1782079237.842349,0.085091,1350,1.6479
157,1782079237.8424103,0.085152,1353,1.6516
158,1782079237.842471,0.085213,1352,1.6504
159,1782079237.8425288,0.085271,1352,1.6504
160,1782079237.8425705,0.085313,1355,1.6541
161,1782079237.8426058,0.085348,1352,1.6504
162,1782079237.842649,0.085391,1359,1.6589
163,1782079237.8426838,0.085426,1353,1.6516
164,1782079237.8427372,0.085479,1359,1.6589
165,1782079237.8450372,0.087779,1353,1.6516
166,1782079237.8455973,0.088339,1364,1.6650
167,1782079237.8456454,0.088387,1359,1.6589
168,1782079237.845693,0.088435,1367,1.6687
169,1782079237.8457322,0.088474,1366,1.6675
170,1782079237.845755,0.088497,1371,1.6736
171,1782079237.845783,0.088525,1372,1.6748
172,1782079237.8458312,0.088573,1372,1.6748
173,1782079237.8458617,0.088604,1371,1.6736
174,1782079237.8463519,0.089094,1371,1.6736
175,1782079237.846383,0.089125,1368,1.6699
176,1782079237.8464239,0.089166,1367,1.6687
177,1782079237.8464487,0.089191,1369,1.6711
178,1782079237.847123,0.089865,1368,1.6699
179,1782079237.8472948,0.090037,1371,1.6736
180,1782079237.8480246,0.090767,1364,1.6650
181,1782079237.8483086,0.091051,1365,1.6663
182,1782079237.8491251,0.091867,1366,1.6675
183,1782079237.8492548,0.091997,1360,1.6602
184,1782079237.8498113,0.092553,1356,1.6553
185,1782079237.8505585,0.093301,1366,1.6675
186,1782079237.8510978,0.093840,1355,1.6541
187,1782079237.8537858,0.096528,1355,1.6541
188,1782079237.8538282,0.096570,1356,1.6553
189,1782079237.8538723,0.096614,1358,1.6577
190,1782079237.853903,0.096645,1354,1.6528
191,1782079237.8539374,0.096679,1358,1.6577
192,1782079237.8539786,0.096721,1351,1.6492
193,1782079237.8542426,0.096985,1350,1.6479
194,1782079237.8548775,0.097620,1350,1.6479
195,1782079237.855621,0.098363,1354,1.6528
196,1782079237.8557396,0.098482,1354,1.6528
197,1782079237.8562858,0.099028,1349,1.6467
198,1782079237.8570821,0.099824,1353,1.6516
199,1782079237.8572748,0.100017,1348,1.6455
200,1782079237.8577814,0.100523,1358,1.6577
201,1782079237.8582835,0.101026,1354,1.6528
202,1782079237.8588016,0.101544,1358,1.6577
203,1782079237.859281,0.102023,1360,1.6602
204,1782079237.859791,0.102533,1357,1.6565
205,1782079237.8602912,0.103033,1361,1.6614
206,1782079237.8608012,0.103543,1360,1.6602
207,1782079237.8612893,0.104031,1363,1.6638
208,1782079237.8618069,0.104549,1366,1.6675
209,1782079237.862308,0.105050,1362,1.6626
210,1782079237.8627996,0.105542,1369,1.6711
211,1782079237.8632946,0.106037,1364,1.6650
212,1782079237.8637886,0.106531,1363,1.6638
213,1782079237.8643644,0.107106,1366,1.6675
214,1782079237.864792,0.107534,1361,1.6614
215,1782079237.8657777,0.108520,1363,1.6638
216,1782079237.8658812,0.108623,1362,1.6626
217,1782079237.8663063,0.109048,1358,1.6577
218,1782079237.8668082,0.109550,1362,1.6626
219,1782079237.8672943,0.110036,1366,1.6675
220,1782079237.867802,0.110544,1365,1.6663
221,1782079237.8690321,0.111774,1364,1.6650
222,1782079237.8764627,0.119205,1363,1.6638
223,1782079237.8765266,0.119269,1357,1.6565
224,1782079237.8770423,0.119784,1363,1.6638
225,1782079237.8774605,0.120203,1359,1.6589
226,1782079237.877494,0.120236,1360,1.6602
227,1782079237.877934,0.120676,1357,1.6565
228,1782079237.877965,0.120707,1347,1.6443
229,1782079237.87836,0.121102,1351,1.6492
230,1782079237.8787785,0.121521,1345,1.6418
231,1782079237.8788142,0.121556,1346,1.6431
232,1782079237.8818848,0.124627,1340,1.6357
233,1782079237.8819594,0.124701,1343,1.6394
234,1782079237.881991,0.124733,1343,1.6394
235,1782079237.8820248,0.124767,1342,1.6382
236,1782079237.8820531,0.124795,1348,1.6455
237,1782079237.8845375,0.127280,1346,1.6431
238,1782079237.8846035,0.127346,1342,1.6382
239,1782079237.885135,0.127877,1342,1.6382
240,1782079237.8851938,0.127936,1339,1.6345
241,1782079237.8856854,0.128428,1346,1.6431
242,1782079237.885758,0.128500,1349,1.6467
243,1782079237.885791,0.128533,1350,1.6479
244,1782079237.8858204,0.128562,1350,1.6479
245,1782079237.8858485,0.128591,1349,1.6467
246,1782079237.8864658,0.129208,1342,1.6382
247,1782079237.8870003,0.129742,1348,1.6455
248,1782079237.8870673,0.129809,1350,1.6479
249,1782079237.8871138,0.129856,1356,1.6553
250,1782079237.8871605,0.129903,1354,1.6528
251,1782079237.8871932,0.129935,1356,1.6553
252,1782079237.8878655,0.130608,1356,1.6553
253,1782079237.8879292,0.130671,1356,1.6553
254,1782079237.8879726,0.130715,1357,1.6565
255,1782079237.8886309,0.131373,1357,1.6565
256,1782079237.8892462,0.131988,1354,1.6528
257,1782079237.889371,0.132113,1358,1.6577
258,1782079237.8894038,0.132146,1356,1.6553
259,1782079237.8894343,0.132176,1350,1.6479
260,1782079237.88991,0.132652,1353,1.6516
261,1782079237.8899708,0.132713,1345,1.6418
262,1782079237.8900056,0.132748,1343,1.6394
263,1782079237.8926237,0.135366,1343,1.6394
264,1782079237.8926733,0.135415,1345,1.6418
265,1782079237.8927157,0.135458,1346,1.6431
266,1782079237.8927453,0.135487,1344,1.6406
267,1782079237.8927708,0.135513,1341,1.6370
268,1782079237.8928008,0.135543,1336,1.6309
269,1782079237.892847,0.135589,1345,1.6418
270,1782079237.892895,0.135637,1346,1.6431
271,1782079237.8945343,0.137276,1342,1.6382
272,1782079237.8946064,0.137348,1341,1.6370
273,1782079237.8946412,0.137383,1335,1.6296
274,1782079237.8948994,0.137641,1335,1.6296
275,1782079237.8956716,0.138414,1343,1.6394
276,1782079237.8958697,0.138612,1340,1.6357
277,1782079237.8964484,0.139190,1337,1.6321
278,1782079237.8969114,0.139653,1347,1.6443
279,1782079237.8975012,0.140243,1340,1.6357
280,1782079237.897965,0.140707,1342,1.6382
281,1782079237.8984919,0.141234,1347,1.6443
282,1782079237.8989413,0.141683,1350,1.6479
283,1782079237.899462,0.142204,1345,1.6418
284,1782079237.8999033,0.142645,1346,1.6431
285,1782079237.9004705,0.143213,1349,1.6467
286,1782079237.9009833,0.143725,1351,1.6492
287,1782079237.9014084,0.144150,1350,1.6479
288,1782079237.9019613,0.144703,1351,1.6492
289,1782079237.902482,0.145224,1357,1.6565
290,1782079237.9029863,0.145728,1363,1.6638
291,1782079237.9039285,0.146671,1365,1.6663
292,1782079237.9039984,0.146740,1361,1.6614
293,1782079237.9044647,0.147207,1362,1.6626
294,1782079237.9049513,0.147693,1363,1.6638
295,1782079237.911227,0.153969,1364,1.6650
296,1782079237.9135163,0.156258,1364,1.6650
297,1782079237.9143472,0.157089,1355,1.6541
298,1782079237.9145303,0.157272,1356,1.6553
299,1782079237.9186196,0.161362,1359,1.6589
300,1782079237.9186823,0.161424,1349,1.6467
301,1782079237.9187343,0.161476,1344,1.6406
302,1782079237.9187813,0.161523,1345,1.6418
303,1782079237.9188075,0.161550,1347,1.6443
304,1782079237.918838,0.161580,1351,1.6492
305,1782079237.9188833,0.161625,1347,1.6443
306,1782079237.9189117,0.161654,1343,1.6394
307,1782079237.921368,0.164110,1341,1.6370
308,1782079237.9214323,0.164174,1346,1.6431
309,1782079237.921884,0.164626,1343,1.6394
310,1782079237.921988,0.164730,1348,1.6455
311,1782079237.9220262,0.164768,1348,1.6455
312,1782079237.9224808,0.165223,1343,1.6394
313,1782079237.9225419,0.165284,1344,1.6406
314,1782079237.9225888,0.165331,1340,1.6357
315,1782079237.9226649,0.165407,1345,1.6418
316,1782079237.923166,0.165908,1340,1.6357
317,1782079237.9232247,0.165967,1342,1.6382
318,1782079237.9232576,0.166000,1341,1.6370
319,1782079237.9232883,0.166030,1337,1.6321
320,1782079237.9233143,0.166056,1344,1.6406
321,1782079237.923342,0.166084,1345,1.6418
322,1782079237.923731,0.166473,1346,1.6431
323,1782079237.9237995,0.166542,1347,1.6443
324,1782079237.923843,0.166585,1351,1.6492
325,1782079237.9238925,0.166635,1356,1.6553
326,1782079237.924392,0.167134,1352,1.6504
327,1782079237.9244487,0.167191,1360,1.6602
328,1782079237.924484,0.167226,1353,1.6516
329,1782079237.924953,0.167695,1357,1.6565
330,1782079237.9250112,0.167753,1355,1.6541
331,1782079237.925048,0.167790,1355,1.6541
332,1782079237.9250774,0.167819,1355,1.6541
333,1782079237.9255009,0.168243,1355,1.6541
334,1782079237.9255686,0.168311,1353,1.6516
335,1782079237.9255946,0.168337,1353,1.6516
336,1782079237.9286985,0.171441,1346,1.6431
337,1782079237.9289196,0.171662,1350,1.6479
338,1782079237.928984,0.171726,1344,1.6406
339,1782079237.9290192,0.171761,1341,1.6370
340,1782079237.9290476,0.171790,1341,1.6370
341,1782079237.9290795,0.171822,1343,1.6394
342,1782079237.9291043,0.171846,1338,1.6333
343,1782079237.9312465,0.173989,1338,1.6333
344,1782079237.9314127,0.174155,1339,1.6345
345,1782079237.9317558,0.174498,1338,1.6333
346,1782079237.9319499,0.174692,1339,1.6345
347,1782079237.9320486,0.174791,1337,1.6321
348,1782079237.9320996,0.174842,1336,1.6309
349,1782079237.9325993,0.175341,1335,1.6296
350,1782079237.933501,0.176243,1338,1.6333
351,1782079237.9335659,0.176308,1335,1.6296
352,1782079237.9340122,0.176754,1338,1.6333
353,1782079237.9344788,0.177221,1335,1.6296
354,1782079237.9350007,0.177743,1334,1.6284
355,1782079237.9355643,0.178306,1330,1.6235
356,1782079237.9360151,0.178757,1334,1.6284
357,1782079237.9365594,0.179302,1333,1.6272
358,1782079237.9370282,0.179770,1332,1.6260
359,1782079237.9375575,0.180300,1334,1.6284
360,1782079237.9379773,0.180719,1329,1.6223
361,1782079237.9385626,0.181305,1327,1.6199
362,1782079237.9390225,0.181765,1328,1.6211
363,1782079237.9395638,0.182306,1330,1.6235
364,1782079237.9399831,0.182725,1334,1.6284
365,1782079237.9405596,0.183302,1338,1.6333
366,1782079237.9414308,0.184173,1334,1.6284
367,1782079237.941515,0.184257,1335,1.6296
368,1782079237.942036,0.184778,1338,1.6333
369,1782079237.9425237,0.185266,1341,1.6370
370,1782079237.9507134,0.193455,1342,1.6382
371,1782079237.9531307,0.195873,1337,1.6321
372,1782079237.9531858,0.195928,1341,1.6370
373,1782079237.9532182,0.195960,1340,1.6357
374,1782079237.9532514,0.195993,1342,1.6382
375,1782079237.9538064,0.196548,1346,1.6431
376,1782079237.9538412,0.196583,1343,1.6394
377,1782079237.9538724,0.196615,1342,1.6382
378,1782079237.954392,0.197134,1344,1.6406
379,1782079237.954425,0.197167,1344,1.6406
380,1782079237.9544475,0.197190,1346,1.6431
381,1782079237.9544728,0.197215,1337,1.6321
382,1782079237.9549594,0.197701,1346,1.6431
383,1782079237.9554057,0.198148,1343,1.6394
384,1782079237.9554343,0.198176,1340,1.6357
385,1782079237.9554543,0.198196,1336,1.6309
386,1782079237.9554741,0.198216,1336,1.6309
387,1782079237.9559095,0.198652,1329,1.6223
388,1782079237.9559345,0.198677,1327,1.6199
389,1782079237.9559534,0.198695,1318,1.6089
390,1782079237.958601,0.201343,1325,1.6174
391,1782079237.9586473,0.201389,1324,1.6162
392,1782079237.9586923,0.201434,1318,1.6089
393,1782079237.9587235,0.201466,1319,1.6101
394,1782079237.9587579,0.201500,1322,1.6138
395,1782079237.9588048,0.201547,1315,1.6052
396,1782079237.9588315,0.201574,1316,1.6064
397,1782079237.9588702,0.201612,1314,1.6040
398,1782079237.9588974,0.201639,1319,1.6101
399,1782079237.9589217,0.201664,1320,1.6113
400,1782079237.9589784,0.201720,1314,1.6040
401,1782079237.9590075,0.201750,1313,1.6028
402,1782079237.9590487,0.201791,1318,1.6089
403,1782079237.961343,0.204085,1314,1.6040
404,1782079237.961378,0.204120,1321,1.6125
405,1782079237.9614027,0.204145,1318,1.6089
406,1782079237.9618895,0.204632,1321,1.6125
407,1782079237.9619203,0.204662,1325,1.6174
408,1782079237.9619937,0.204736,1323,1.6150
409,1782079237.9627662,0.205508,1325,1.6174
410,1782079237.9633567,0.206099,1323,1.6150
411,1782079237.9634986,0.206241,1325,1.6174
412,1782079237.964212,0.206954,1331,1.6248
413,1782079237.9651275,0.207870,1323,1.6150
414,1782079237.9653091,0.208051,1322,1.6138
415,1782079237.9658477,0.208590,1322,1.6138
416,1782079237.966516,0.209258,1328,1.6211
417,1782079237.967058,0.209800,1327,1.6199
418,1782079237.9671233,0.209865,1320,1.6113
419,1782079237.968554,0.211296,1319,1.6101
420,1782079237.9703028,0.213045,1321,1.6125
421,1782079237.9703526,0.213095,1317,1.6077
422,1782079237.9703941,0.213136,1319,1.6101
423,1782079237.9704192,0.213161,1312,1.6016
424,1782079237.9704459,0.213188,1315,1.6052
425,1782079237.9705026,0.213245,1308,1.5967
426,1782079237.9724135,0.215156,1310,1.5991
427,1782079237.9725046,0.215247,1313,1.6028
428,1782079237.9725568,0.215299,1312,1.6016
429,1782079237.9725876,0.215330,1306,1.5942
430,1782079237.9730556,0.215798,1313,1.6028
431,1782079237.9737,0.216442,1317,1.6077
432,1782079237.9742708,0.217013,1314,1.6040
433,1782079237.9745426,0.217285,1314,1.6040
434,1782079237.975074,0.217816,1316,1.6064
435,1782079237.9755836,0.218326,1314,1.6040
436,1782079237.976096,0.218838,1316,1.6064
437,1782079237.976587,0.219329,1316,1.6064
438,1782079237.9771056,0.219848,1314,1.6040
439,1782079237.9775841,0.220326,1309,1.5979
440,1782079237.978095,0.220837,1311,1.6003
441,1782079237.978583,0.221325,1309,1.5979
442,1782079237.979104,0.221846,1313,1.6028
443,1782079237.979609,0.222351,1312,1.6016
444,1782079237.9800518,0.222794,1317,1.6077
445,1782079237.9805253,0.223267,1314,1.6040
446,1782079237.9810808,0.223823,1317,1.6077
447,1782079237.9819722,0.224714,1319,1.6101
448,1782079237.9820528,0.224795,1321,1.6125
449,1782079237.9826326,0.225375,1326,1.6187
450,1782079237.9830575,0.225800,1324,1.6162
451,1782079237.9918926,0.234635,1329,1.6223
452,1782079237.9924777,0.235220,1329,1.6223
453,1782079237.994326,0.237068,1335,1.6296
454,1782079237.9972131,0.239955,1331,1.6248
455,1782079237.9974048,0.240147,1332,1.6260
456,1782079237.9975584,0.240300,1330,1.6235
457,1782079237.9976184,0.240360,1336,1.6309
458,1782079237.9976845,0.240427,1331,1.6248
459,1782079237.997723,0.240465,1328,1.6211
460,1782079237.9977531,0.240495,1328,1.6211
461,1782079237.9978032,0.240545,1322,1.6138
462,1782079237.9978356,0.240578,1317,1.6077
463,1782079237.9978635,0.240606,1308,1.5967
464,1782079237.997895,0.240637,1312,1.6016
465,1782079237.9979184,0.240660,1309,1.5979
466,1782079237.9979577,0.240700,1310,1.5991
467,1782079238.00123,0.243972,1299,1.5857
468,1782079238.001303,0.244045,1307,1.5955
469,1782079238.0013618,0.244104,1296,1.5820
470,1782079238.0013957,0.244138,1304,1.5918
471,1782079238.0019588,0.244701,1302,1.5894
472,1782079238.0020247,0.244767,1305,1.5930
473,1782079238.0025198,0.245262,1301,1.5881
474,1782079238.0026097,0.245352,1301,1.5881
475,1782079238.002662,0.245404,1303,1.5906
476,1782079238.0026958,0.245438,1307,1.5955
477,1782079238.0031762,0.245918,1302,1.5894
478,1782079238.0032492,0.245991,1302,1.5894
479,1782079238.0032861,0.246028,1302,1.5894
480,1782079238.0037906,0.246533,1305,1.5930
481,1782079238.003853,0.246595,1303,1.5906
482,1782079238.0038836,0.246626,1310,1.5991
483,1782079238.0039155,0.246658,1319,1.6101
484,1782079238.0039396,0.246682,1317,1.6077
485,1782079238.0044248,0.247167,1317,1.6077
486,1782079238.0044763,0.247218,1317,1.6077
487,1782079238.0045104,0.247252,1319,1.6101
488,1782079238.004557,0.247299,1321,1.6125
489,1782079238.004582,0.247324,1321,1.6125
490,1782079238.0051458,0.247888,1318,1.6089
491,1782079238.005193,0.247935,1321,1.6125
492,1782079238.0052226,0.247965,1316,1.6064
493,1782079238.005253,0.247995,1317,1.6077
494,1782079238.0058568,0.248599,1313,1.6028
495,1782079238.008952,0.251694,1312,1.6016
496,1782079238.0090153,0.251757,1315,1.6052
497,1782079238.0090752,0.251817,1316,1.6064
498,1782079238.00911,0.251852,1313,1.6028
499,1782079238.0091364,0.251878,1312,1.6016
500,1782079238.0091865,0.251929,1313,1.6028
501,1782079238.009219,0.251961,1304,1.5918
502,1782079238.009247,0.251989,1307,1.5955
503,1782079238.0112007,0.253943,1306,1.5942
504,1782079238.0112743,0.254016,1303,1.5906
505,1782079238.0113099,0.254052,1299,1.5857
506,1782079238.0113428,0.254085,1296,1.5820
507,1782079238.0116599,0.254402,1299,1.5857
508,1782079238.012469,0.255211,1301,1.5881
509,1782079238.0126777,0.255420,1301,1.5881
510,1782079238.0132196,0.255962,1295,1.5808
511,1782079238.0136647,0.256407,1297,1.5833
512,1782079238.0141351,0.256877,1298,1.5845
513,1782079238.014596,0.257338,1296,1.5820
514,1782079238.0151036,0.257846,1297,1.5833
515,1782079238.0156305,0.258373,1304,1.5918
516,1782079238.0161073,0.258849,1301,1.5881
517,1782079238.0166504,0.259392,1300,1.5869
518,1782079238.0171323,0.259874,1298,1.5845
519,1782079238.0175967,0.260339,1300,1.5869
520,1782079238.0180933,0.260835,1301,1.5881
521,1782079238.0186465,0.261389,1296,1.5820
522,1782079238.0191278,0.261870,1303,1.5906
523,1782079238.0196068,0.262349,1300,1.5869
524,1782079238.0201304,0.262872,1295,1.5808
525,1782079238.0206218,0.263364,1296,1.5820
526,1782079238.0216622,0.264404,1295,1.5808
527,1782079238.0217748,0.264517,1296,1.5820
528,1782079238.0220876,0.264830,1292,1.5771
529,1782079238.0226212,0.265363,1288,1.5723
530,1782079238.0303206,0.273063,1296,1.5820
531,1782079238.035952,0.278694,1292,1.5771
532,1782079238.038768,0.281510,1291,1.5759
533,1782079238.0388484,0.281590,1295,1.5808
534,1782079238.038901,0.281643,1291,1.5759
535,1782079238.038954,0.281696,1288,1.5723
536,1782079238.0389857,0.281728,1292,1.5771
537,1782079238.039019,0.281761,1288,1.5723
538,1782079238.040722,0.283464,1294,1.5796
539,1782079238.0419025,0.284645,1292,1.5771
540,1782079238.042507,0.285249,1288,1.5723
541,1782079238.0426037,0.285346,1293,1.5784
542,1782079238.0427008,0.285443,1285,1.5686
543,1782079238.0432222,0.285964,1283,1.5662
544,1782079238.0433426,0.286085,1283,1.5662
545,1782079238.0434008,0.286143,1276,1.5576
546,1782079238.0440285,0.286771,1278,1.5601
547,1782079238.0440655,0.286808,1275,1.5564
548,1782079238.044091,0.286833,1279,1.5613
549,1782079238.044152,0.286894,1273,1.5540
550,1782079238.0441766,0.286919,1274,1.5552
551,1782079238.0442147,0.286957,1272,1.5527
552,1782079238.044787,0.287529,1272,1.5527
553,1782079238.0448153,0.287557,1272,1.5527
554,1782079238.0448565,0.287599,1270,1.5503
555,1782079238.0448806,0.287623,1272,1.5527
556,1782079238.0449193,0.287661,1273,1.5540
557,1782079238.0449436,0.287686,1271,1.5515
558,1782079238.0449796,0.287722,1272,1.5527
559,1782079238.0454698,0.288212,1273,1.5540
560,1782079238.045506,0.288248,1275,1.5564
561,1782079238.045549,0.288291,1273,1.5540
562,1782079238.0455732,0.288315,1279,1.5613
563,1782079238.045627,0.288369,1275,1.5564
564,1782079238.045652,0.288394,1280,1.5625
565,1782079238.0456872,0.288429,1280,1.5625
566,1782079238.0457096,0.288452,1280,1.5625
567,1782079238.046199,0.288941,1276,1.5576
568,1782079238.046233,0.288975,1281,1.5637
569,1782079238.046278,0.289020,1281,1.5637
570,1782079238.0463037,0.289046,1286,1.5698
571,1782079238.0463414,0.289083,1284,1.5674
572,1782079238.0463684,0.289110,1283,1.5662
573,1782079238.0463972,0.289139,1284,1.5674
574,1782079238.0469565,0.289699,1282,1.5649
575,1782079238.0470228,0.289765,1281,1.5637
576,1782079238.0470848,0.289827,1279,1.5613
577,1782079238.0471654,0.289907,1280,1.5625
578,1782079238.0472174,0.289959,1282,1.5649
579,1782079238.0477352,0.290477,1279,1.5613
580,1782079238.0509746,0.293717,1277,1.5588
581,1782079238.0510488,0.293791,1274,1.5552
582,1782079238.0510838,0.293826,1272,1.5527
583,1782079238.051126,0.293868,1271,1.5515
584,1782079238.0511787,0.293921,1273,1.5540
585,1782079238.051214,0.293956,1272,1.5527
586,1782079238.0512538,0.293996,1269,1.5491
587,1782079238.053187,0.295929,1271,1.5515
588,1782079238.053258,0.296000,1271,1.5515
589,1782079238.053301,0.296043,1271,1.5515
590,1782079238.0533288,0.296071,1274,1.5552
591,1782079238.0536227,0.296365,1270,1.5503
592,1782079238.0546267,0.297369,1268,1.5479
593,1782079238.0547152,0.297457,1272,1.5527
594,1782079238.0552337,0.297976,1266,1.5454
595,1782079238.0556686,0.298411,1271,1.5515
596,1782079238.0562067,0.298949,1272,1.5527
597,1782079238.0566585,0.299401,1269,1.5491
598,1782079238.0572014,0.299943,1271,1.5515
599,1782079238.057739,0.300481,1266,1.5454
600,1782079238.0582128,0.300955,1267,1.5466
601,1782079238.058711,0.301453,1267,1.5466
602,1782079238.0592048,0.301947,1266,1.5454
603,1782079238.0597124,0.302454,1271,1.5515
604,1782079238.0602252,0.302967,1266,1.5454
605,1782079238.0607338,0.303476,1270,1.5503
606,1782079238.061226,0.303968,1267,1.5466
607,1782079238.0617085,0.304451,1272,1.5527
608,1782079238.062411,0.305153,1272,1.5527
609,1782079238.062688,0.305430,1272,1.5527
610,1782079238.0632622,0.306004,1267,1.5466
611,1782079238.063699,0.306441,1271,1.5515
612,1782079238.0708735,0.313616,1268,1.5479
613,1782079238.0732653,0.316007,1271,1.5515
614,1782079238.0740514,0.316793,1268,1.5479
615,1782079238.074165,0.316907,1268,1.5479
616,1782079238.0747695,0.317512,1264,1.5430
617,1782079238.075329,0.318071,1265,1.5442
618,1782079238.0753944,0.318136,1265,1.5442
619,1782079238.0761223,0.318864,1263,1.5417
620,1782079238.076149,0.318891,1263,1.5417
621,1782079238.076171,0.318913,1263,1.5417
622,1782079238.0766735,0.319416,1262,1.5405
623,1782079238.0766995,0.319442,1259,1.5369
624,1782079238.0794396,0.322182,1263,1.5417
625,1782079238.0795245,0.322267,1260,1.5381
626,1782079238.0795498,0.322292,1260,1.5381
627,1782079238.079613,0.322355,1259,1.5369
628,1782079238.0796468,0.322389,1259,1.5369
629,1782079238.0796719,0.322414,1260,1.5381
630,1782079238.079712,0.322454,1256,1.5332
631,1782079238.079741,0.322483,1259,1.5369
632,1782079238.0797834,0.322526,1254,1.5308
633,1782079238.0798087,0.322551,1256,1.5332
634,1782079238.0798428,0.322585,1253,1.5295
635,1782079238.079922,0.322664,1257,1.5344
636,1782079238.079992,0.322734,1260,1.5381
637,1782079238.080089,0.322831,1257,1.5344
638,1782079238.080127,0.322869,1260,1.5381
639,1782079238.082759,0.325501,1254,1.5308
640,1782079238.0840383,0.326780,1260,1.5381
641,1782079238.085134,0.327876,1254,1.5308
642,1782079238.0852666,0.328009,1265,1.5442
643,1782079238.0853112,0.328053,1260,1.5381
644,1782079238.0853605,0.328103,1260,1.5381
645,1782079238.0859194,0.328661,1258,1.5356
646,1782079238.08598,0.328722,1260,1.5381
647,1782079238.0865736,0.329316,1261,1.5393
648,1782079238.0871434,0.329885,1263,1.5417
649,1782079238.0872235,0.329966,1262,1.5405
650,1782079238.0872574,0.329999,1262,1.5405
651,1782079238.0877643,0.330506,1260,1.5381
652,1782079238.0878243,0.330566,1266,1.5454
653,1782079238.087854,0.330596,1265,1.5442
654,1782079238.0878859,0.330628,1267,1.5466
655,1782079238.0879116,0.330654,1265,1.5442
656,1782079238.0883956,0.331138,1268,1.5479
657,1782079238.0884554,0.331198,1268,1.5479
658,1782079238.0886426,0.331385,1270,1.5503
659,1782079238.0887208,0.331463,1270,1.5503
660,1782079238.0918033,0.334545,1268,1.5479
661,1782079238.091862,0.334604,1269,1.5491
662,1782079238.0918922,0.334634,1269,1.5491
663,1782079238.0919387,0.334681,1267,1.5466
664,1782079238.0919666,0.334709,1262,1.5405
665,1782079238.0919955,0.334738,1258,1.5356
666,1782079238.0920186,0.334761,1257,1.5344
667,1782079238.0920625,0.334805,1255,1.5320
668,1782079238.0922565,0.334999,1251,1.5271
669,1782079238.0941737,0.336916,1248,1.5234
670,1782079238.094265,0.337007,1244,1.5186
671,1782079238.0943017,0.337044,1245,1.5198
672,1782079238.094326,0.337068,1237,1.5100
673,1782079238.094823,0.337565,1240,1.5137
674,1782079238.0953164,0.338058,1238,1.5112
675,1782079238.095808,0.338550,1238,1.5112
676,1782079238.0963318,0.339074,1234,1.5063
677,1782079238.0967674,0.339509,1233,1.5051
678,1782079238.0972986,0.340041,1233,1.5051
679,1782079238.0978112,0.340553,1234,1.5063
680,1782079238.0982568,0.340999,1235,1.5076
681,1782079238.0987458,0.341488,1236,1.5088
682,1782079238.0992389,0.341981,1234,1.5063
683,1782079238.0997543,0.342496,1241,1.5149
684,1782079238.1002593,0.343001,1239,1.5125
685,1782079238.1007667,0.343509,1242,1.5161
686,1782079238.1012788,0.344021,1245,1.5198
687,1782079238.1018085,0.344551,1249,1.5247
688,1782079238.102278,0.345020,1247,1.5222
689,1782079238.1028137,0.345556,1247,1.5222
690,1782079238.103295,0.346037,1247,1.5222
691,1782079238.103837,0.346579,1246,1.5210
692,1782079238.104546,0.347288,1241,1.5149
693,1782079238.10484,0.347582,1248,1.5234
694,1782079238.1052952,0.348037,1250,1.5259
695,1782079238.1057913,0.348533,1248,1.5234
696,1782079238.1062794,0.349021,1247,1.5222
697,1782079238.1147797,0.357522,1251,1.5271
698,1782079238.1160395,0.358782,1248,1.5234
699,1782079238.1160834,0.358825,1246,1.5210
700,1782079238.1161134,0.358855,1243,1.5173
701,1782079238.116143,0.358885,1244,1.5186
702,1782079238.1167083,0.359450,1244,1.5186
703,1782079238.1167583,0.359500,1241,1.5149
704,1782079238.1168034,0.359545,1244,1.5186
705,1782079238.1173105,0.360053,1240,1.5137
706,1782079238.1173458,0.360088,1239,1.5125
707,1782079238.1178281,0.360570,1241,1.5149
708,1782079238.1178572,0.360599,1242,1.5161
709,1782079238.1178925,0.360635,1242,1.5161
710,1782079238.1183813,0.361123,1241,1.5149
711,1782079238.1188881,0.361630,1237,1.5100
712,1782079238.1189697,0.361712,1240,1.5137
713,1782079238.1189935,0.361736,1236,1.5088
714,1782079238.119017,0.361759,1239,1.5125
715,1782079238.1220474,0.364789,1237,1.5100
716,1782079238.1221278,0.364870,1237,1.5100
717,1782079238.1221542,0.364896,1237,1.5100
718,1782079238.1222003,0.364942,1234,1.5063
719,1782079238.1222465,0.364989,1229,1.5002
720,1782079238.1222725,0.365015,1225,1.4954
721,1782079238.1222963,0.365038,1227,1.4978
722,1782079238.1223395,0.365082,1224,1.4941
723,1782079238.1223686,0.365111,1228,1.4990
724,1782079238.1224113,0.365153,1220,1.4893
725,1782079238.1224432,0.365185,1228,1.4990
726,1782079238.1224873,0.365229,1221,1.4905
727,1782079238.122517,0.365259,1221,1.4905
728,1782079238.1225493,0.365291,1222,1.4917
729,1782079238.1250215,0.367764,1222,1.4917
730,1782079238.125063,0.367805,1224,1.4941
731,1782079238.1256058,0.368348,1222,1.4917
732,1782079238.1256356,0.368378,1228,1.4990
733,1782079238.1256826,0.368425,1226,1.4966
734,1782079238.1257079,0.368450,1229,1.5002
735,1782079238.1257794,0.368521,1226,1.4966
736,1782079238.1263413,0.369083,1227,1.4978
737,1782079238.1269693,0.369711,1228,1.4990
738,1782079238.1276703,0.370412,1229,1.5002
739,1782079238.1277812,0.370523,1226,1.4966
740,1782079238.1283777,0.371120,1232,1.5039
741,1782079238.129028,0.371770,1226,1.4966
742,1782079238.1296716,0.372414,1227,1.4978
743,1782079238.129823,0.372565,1225,1.4954
744,1782079238.1308718,0.373614,1225,1.4954
745,1782079238.1309755,0.373718,1228,1.4990
746,1782079238.1315145,0.374257,1228,1.4990
747,1782079238.1350038,0.377746,1224,1.4941
748,1782079238.1350713,0.377813,1226,1.4966
749,1782079238.135182,0.377924,1225,1.4954
750,1782079238.1352632,0.378005,1228,1.4990
751,1782079238.1353292,0.378071,1225,1.4954
752,1782079238.135377,0.378119,1229,1.5002
753,1782079238.135448,0.378190,1225,1.4954
754,1782079238.1354828,0.378225,1223,1.4929
755,1782079238.137786,0.380528,1226,1.4966
756,1782079238.1378846,0.380627,1229,1.5002
757,1782079238.1379254,0.380667,1232,1.5039
758,1782079238.137956,0.380698,1229,1.5002
759,1782079238.137991,0.380733,1231,1.5027
760,1782079238.138426,0.381168,1230,1.5015
761,1782079238.1390808,0.381823,1234,1.5063
762,1782079238.1393697,0.382112,1237,1.5100
763,1782079238.139858,0.382600,1235,1.5076
764,1782079238.1404011,0.383143,1241,1.5149
765,1782079238.140895,0.383637,1238,1.5112
766,1782079238.1413956,0.384138,1243,1.5173
767,1782079238.1419158,0.384658,1244,1.5186
768,1782079238.1424048,0.385147,1245,1.5198
769,1782079238.142906,0.385648,1245,1.5198
770,1782079238.1434026,0.386145,1244,1.5186
771,1782079238.1439168,0.386659,1251,1.5271
772,1782079238.1444054,0.387147,1246,1.5210
773,1782079238.1449327,0.387675,1249,1.5247
774,1782079238.1454039,0.388146,1252,1.5283
775,1782079238.145908,0.388650,1251,1.5271
776,1782079238.1470177,0.389760,1248,1.5234
777,1782079238.1470926,0.389835,1246,1.5210
778,1782079238.1473808,0.390123,1245,1.5198
779,1782079238.1478696,0.390612,1251,1.5271
780,1782079238.148317,0.391059,1243,1.5173
781,1782079238.155185,0.397927,1244,1.5186
782,1782079238.1553001,0.398042,1242,1.5161
783,1782079238.157766,0.400508,1243,1.5173
784,1782079238.1584663,0.401208,1237,1.5100
785,1782079238.1596158,0.402358,1237,1.5100
786,1782079238.1607306,0.403473,1230,1.5015
787,1782079238.1642241,0.406966,1230,1.5015
788,1782079238.1643786,0.407121,1231,1.5027
789,1782079238.1644492,0.407191,1229,1.5002
790,1782079238.16449,0.407232,1227,1.4978
791,1782079238.1645217,0.407264,1228,1.4990
792,1782079238.1645513,0.407293,1225,1.4954
793,1782079238.164583,0.407325,1227,1.4978
794,1782079238.1646261,0.407368,1228,1.4990
795,1782079238.167746,0.410488,1224,1.4941
796,1782079238.1677918,0.410534,1222,1.4917
797,1782079238.1685483,0.411290,1227,1.4978
798,1782079238.1685793,0.411321,1231,1.5027
799,1782079238.168627,0.411369,1227,1.4978
800,1782079238.1686552,0.411397,1226,1.4966
801,1782079238.1686792,0.411421,1228,1.4990
802,1782079238.168719,0.411461,1225,1.4954
803,1782079238.1687446,0.411487,1230,1.5015
804,1782079238.169353,0.412095,1232,1.5039
805,1782079238.1693764,0.412118,1232,1.5039
806,1782079238.1694002,0.412142,1238,1.5112
807,1782079238.1694403,0.412182,1241,1.5149
808,1782079238.1694825,0.412225,1245,1.5198
809,1782079238.1695101,0.412252,1247,1.5222
810,1782079238.169534,0.412276,1249,1.5247
811,1782079238.1701484,0.412890,1247,1.5222
812,1782079238.1701734,0.412915,1252,1.5283
813,1782079238.1702018,0.412944,1252,1.5283
814,1782079238.1702416,0.412984,1257,1.5344
815,1782079238.1702657,0.413008,1258,1.5356
816,1782079238.1703036,0.413046,1257,1.5344
817,1782079238.170326,0.413068,1256,1.5332
818,1782079238.1703525,0.413095,1257,1.5344
819,1782079238.170375,0.413117,1252,1.5283
820,1782079238.1703963,0.413138,1255,1.5320
821,1782079238.1709762,0.413718,1252,1.5283
822,1782079238.171019,0.413761,1252,1.5283
823,1782079238.1710465,0.413789,1247,1.5222
824,1782079238.1710823,0.413824,1249,1.5247
825,1782079238.1711178,0.413860,1239,1.5125
826,1782079238.1717048,0.414447,1238,1.5112
827,1782079238.1723769,0.415119,1236,1.5088
828,1782079238.1724262,0.415168,1239,1.5125
829,1782079238.1730435,0.415786,1238,1.5112
830,1782079238.1736615,0.416404,1231,1.5027
831,1782079238.177058,0.419800,1230,1.5015
832,1782079238.1770923,0.419834,1233,1.5051
833,1782079238.177138,0.419880,1224,1.4941
834,1782079238.1771708,0.419913,1226,1.4966
835,1782079238.177219,0.419961,1224,1.4941
836,1782079238.1772494,0.419991,1229,1.5002
837,1782079238.1772976,0.420040,1230,1.5015
838,1782079238.1774104,0.420152,1227,1.4978
839,1782079238.178332,0.421074,1231,1.5027
840,1782079238.1784291,0.421171,1234,1.5063
841,1782079238.1795025,0.422245,1231,1.5027
842,1782079238.179553,0.422295,1238,1.5112
843,1782079238.1798935,0.422636,1241,1.5149
844,1782079238.1806006,0.423343,1241,1.5149
845,1782079238.181702,0.424444,1244,1.5186
846,1782079238.1817977,0.424540,1244,1.5186
847,1782079238.1819043,0.424646,1246,1.5210
848,1782079238.1824982,0.425240,1248,1.5234
849,1782079238.18292,0.425662,1251,1.5271
850,1782079238.1834843,0.426226,1246,1.5210
851,1782079238.1838999,0.426642,1251,1.5271
852,1782079238.184392,0.427134,1251,1.5271
853,1782079238.1849,0.427642,1250,1.5259
854,1782079238.1854029,0.428145,1252,1.5283
855,1782079238.1859195,0.428662,1252,1.5283
856,1782079238.1863809,0.429123,1250,1.5259
857,1782079238.1869152,0.429657,1251,1.5271
858,1782079238.1874835,0.430226,1254,1.5308
859,1782079238.1878998,0.430642,1253,1.5295
860,1782079238.188483,0.431225,1253,1.5295
861,1782079238.1889012,0.431643,1253,1.5295
862,1782079238.1896887,0.432431,1254,1.5308
863,1782079238.189889,0.432631,1246,1.5210
864,1782079238.1904926,0.433235,1250,1.5259
865,1782079238.1909149,0.433657,1246,1.5210
866,1782079238.1981287,0.440871,1246,1.5210
867,1782079238.2003171,0.443059,1248,1.5234
868,1782079238.2003539,0.443096,1243,1.5173
869,1782079238.2003827,0.443125,1249,1.5247
870,1782079238.200409,0.443151,1245,1.5198
871,1782079238.2009125,0.443655,1244,1.5186
872,1782079238.2009408,0.443683,1242,1.5161
873,1782079238.2013712,0.444113,1247,1.5222
874,1782079238.2014017,0.444144,1238,1.5112
875,1782079238.2018337,0.444576,1240,1.5137
876,1782079238.2018607,0.444603,1236,1.5088
877,1782079238.202294,0.445036,1241,1.5149
878,1782079238.2023256,0.445068,1232,1.5039
879,1782079238.2027264,0.445468,1240,1.5137
880,1782079238.202753,0.445495,1233,1.5051
881,1782079238.2050753,0.447817,1236,1.5088
882,1782079238.2051601,0.447902,1233,1.5051
883,1782079238.2051845,0.447927,1240,1.5137
884,1782079238.2052338,0.447976,1233,1.5051
885,1782079238.2052724,0.448014,1243,1.5173
886,1782079238.2052987,0.448041,1240,1.5137
887,1782079238.2053428,0.448085,1244,1.5186
888,1782079238.2053711,0.448113,1239,1.5125
889,1782079238.2054162,0.448158,1244,1.5186
890,1782079238.2054436,0.448186,1242,1.5161
891,1782079238.2054653,0.448207,1248,1.5234
892,1782079238.205507,0.448249,1244,1.5186
893,1782079238.2055516,0.448294,1252,1.5283
894,1782079238.207723,0.450465,1251,1.5271
895,1782079238.2077546,0.450497,1248,1.5234
896,1782079238.2077825,0.450525,1245,1.5198
897,1782079238.2082202,0.450962,1250,1.5259
898,1782079238.2082493,0.450991,1247,1.5222
899,1782079238.2082708,0.451013,1246,1.5210
900,1782079238.2087567,0.451499,1247,1.5222
901,1782079238.209242,0.451984,1243,1.5173
902,1782079238.2097719,0.452514,1243,1.5173
903,1782079238.2102757,0.453018,1247,1.5222
904,1782079238.2107763,0.453518,1240,1.5137
905,1782079238.2112684,0.454010,1246,1.5210
906,1782079238.2117562,0.454498,1242,1.5161
907,1782079238.2143614,0.457103,1246,1.5210
908,1782079238.2153146,0.458057,1237,1.5100
909,1782079238.215401,0.458143,1241,1.5149
910,1782079238.2154796,0.458222,1237,1.5100
911,1782079238.2155223,0.458264,1242,1.5161
912,1782079238.2155557,0.458298,1242,1.5161
913,1782079238.2156081,0.458350,1241,1.5149
914,1782079238.2156518,0.458394,1239,1.5125
915,1782079238.2182162,0.460958,1244,1.5186
916,1782079238.2182922,0.461034,1236,1.5088
917,1782079238.2183375,0.461080,1243,1.5173
918,1782079238.218362,0.461104,1242,1.5161
919,1782079238.2183971,0.461139,1247,1.5222
920,1782079238.218486,0.461228,1243,1.5173
921,1782079238.2196293,0.462371,1248,1.5234
922,1782079238.2196975,0.462440,1245,1.5198
923,1782079238.2202663,0.463008,1252,1.5283
924,1782079238.2205417,0.463284,1247,1.5222
925,1782079238.2210557,0.463798,1249,1.5247
926,1782079238.2215083,0.464250,1247,1.5222
927,1782079238.2220545,0.464797,1257,1.5344
928,1782079238.222559,0.465301,1249,1.5247
929,1782079238.2230625,0.465805,1255,1.5320
930,1782079238.223569,0.466311,1246,1.5210
931,1782079238.2240694,0.466811,1257,1.5344
932,1782079238.2245605,0.467303,1251,1.5271
933,1782079238.225069,0.467811,1258,1.5356
934,1782079238.2255633,0.468305,1256,1.5332
935,1782079238.2260365,0.468779,1261,1.5393
936,1782079238.226563,0.469305,1256,1.5332
937,1782079238.2270377,0.469780,1259,1.5369
938,1782079238.2275593,0.470301,1256,1.5332
939,1782079238.2280352,0.470777,1261,1.5393
940,1782079238.2287378,0.471480,1259,1.5369
941,1782079238.229053,0.471795,1263,1.5417
942,1782079238.2295954,0.472337,1253,1.5295
943,1782079238.2299979,0.472740,1254,1.5308
944,1782079238.230784,0.473526,1257,1.5344
945,1782079238.23656,0.479302,1261,1.5393
946,1782079238.236658,0.479400,1257,1.5344
947,1782079238.2386084,0.481350,1255,1.5320
948,1782079238.2386506,0.481393,1257,1.5344
949,1782079238.238677,0.481419,1256,1.5332
950,1782079238.2387054,0.481447,1247,1.5222
951,1782079238.2391918,0.481934,1253,1.5295
952,1782079238.2392204,0.481962,1248,1.5234
953,1782079238.2396786,0.482421,1255,1.5320
954,1782079238.2397091,0.482451,1247,1.5222
955,1782079238.2397344,0.482476,1249,1.5247
956,1782079238.2397573,0.482499,1248,1.5234
957,1782079238.240195,0.482937,1256,1.5332
958,1782079238.2406068,0.483349,1255,1.5320
959,1782079238.2406356,0.483378,1257,1.5344
960,1782079238.2410548,0.483797,1251,1.5271
961,1782079238.241084,0.483826,1251,1.5271
962,1782079238.2433465,0.486089,1254,1.5308
963,1782079238.2433891,0.486131,1258,1.5356
964,1782079238.2434137,0.486156,1256,1.5332
965,1782079238.2434404,0.486182,1258,1.5356
966,1782079238.2434905,0.486233,1261,1.5393
967,1782079238.2435243,0.486266,1264,1.5430
968,1782079238.2435644,0.486306,1267,1.5466
969,1782079238.2435918,0.486334,1270,1.5503
970,1782079238.2436135,0.486356,1273,1.5540
971,1782079238.2465506,0.489293,1274,1.5552
972,1782079238.2466412,0.489383,1276,1.5576
973,1782079238.2466774,0.489419,1276,1.5576
974,1782079238.2467093,0.489451,1276,1.5576
975,1782079238.2467382,0.489480,1274,1.5552
976,1782079238.2467813,0.489523,1275,1.5564
977,1782079238.2470152,0.489757,1276,1.5576
978,1782079238.2479331,0.490675,1275,1.5564
979,1782079238.2480576,0.490800,1275,1.5564
980,1782079238.2491095,0.491852,1272,1.5527
981,1782079238.249202,0.491944,1271,1.5515
982,1782079238.2498631,0.492605,1270,1.5503
983,1782079238.250034,0.492776,1268,1.5479
984,1782079238.250567,0.493309,1263,1.5417
985,1782079238.25115,0.493892,1258,1.5356
986,1782079238.2517443,0.494486,1259,1.5369
987,1782079238.252312,0.495054,1260,1.5381
988,1782079238.2528772,0.495619,1257,1.5344
989,1782079238.255864,0.498606,1258,1.5356
990,1782079238.2559319,0.498674,1255,1.5320
991,1782079238.255988,0.498730,1256,1.5332
992,1782079238.256067,0.498809,1264,1.5430
993,1782079238.2561262,0.498868,1266,1.5454
994,1782079238.2561712,0.498913,1268,1.5479
995,1782079238.2562025,0.498945,1267,1.5466
996,1782079238.2571275,0.499870,1267,1.5466
997,1782079238.2582877,0.501030,1268,1.5479
998,1782079238.2583477,0.501090,1268,1.5479
999,1782079238.2584088,0.501151,1271,1.5515
1000,1782079238.258532,0.501274,1278,1.5601
1001,1782079238.2595115,0.502254,1280,1.5625
1002,1782079238.2595804,0.502322,1280,1.5625
1003,1782079238.2601738,0.502916,1280,1.5625
1004,1782079238.2605815,0.503324,1286,1.5698
1005,1782079238.2610874,0.503829,1284,1.5674
1006,1782079238.261573,0.504315,1285,1.5686
1007,1782079238.2620788,0.504821,1288,1.5723
1008,1782079238.2625937,0.505336,1296,1.5820
1009,1782079238.263116,0.505858,1294,1.5796
1010,1782079238.2636065,0.506349,1294,1.5796
1011,1782079238.2642298,0.506972,1292,1.5771
1012,1782079238.2646053,0.507347,1290,1.5747
1013,1782079238.2650998,0.507842,1293,1.5784
1014,1782079238.2655985,0.508341,1293,1.5784
1015,1782079238.2660825,0.508825,1289,1.5735
1016,1782079238.266594,0.509336,1282,1.5649
1017,1782079238.2670848,0.509827,1282,1.5649
1018,1782079238.2675192,0.510261,1278,1.5601
1019,1782079238.2680273,0.510769,1278,1.5601
1020,1782079238.2685478,0.511290,1278,1.5601
1021,1782079238.2691329,0.511875,1274,1.5552
1022,1782079238.2695794,0.512321,1271,1.5515
1023,1782079238.2700713,0.512813,1267,1.5466
1024,1782079238.2709563,0.513698,1269,1.5491
1025,1782079238.278678,0.521420,1268,1.5479
1026,1782079238.279778,0.522520,1262,1.5405
1027,1782079238.2798405,0.522583,1263,1.5417
1028,1782079238.2802868,0.523029,1261,1.5393
1029,1782079238.2803507,0.523093,1268,1.5479
1030,1782079238.2803848,0.523127,1265,1.5442
1031,1782079238.2813556,0.524098,1267,1.5466
1032,1782079238.2814262,0.524168,1268,1.5479
1033,1782079238.2821362,0.524878,1269,1.5491
1034,1782079238.282235,0.524977,1270,1.5503
1035,1782079238.2832618,0.526004,1273,1.5540
1036,1782079238.283331,0.526073,1271,1.5515
1037,1782079238.2833774,0.526119,1276,1.5576
1038,1782079238.2834225,0.526165,1275,1.5564
1039,1782079238.2835097,0.526252,1278,1.5601
1040,1782079238.2835553,0.526297,1279,1.5613
1041,1782079238.284169,0.526911,1282,1.5649
1042,1782079238.284231,0.526973,1285,1.5686
1043,1782079238.2842634,0.527005,1287,1.5710
1044,1782079238.28429,0.527032,1285,1.5686
1045,1782079238.2843158,0.527058,1288,1.5723
1046,1782079238.2843494,0.527092,1290,1.5747
1047,1782079238.2843738,0.527116,1294,1.5796
1048,1782079238.284397,0.527139,1292,1.5771
1049,1782079238.2844234,0.527165,1297,1.5833
1050,1782079238.284447,0.527189,1294,1.5796
1051,1782079238.2844706,0.527213,1297,1.5833
1052,1782079238.2846205,0.527363,1304,1.5918
1053,1782079238.2852108,0.527953,1297,1.5833
1054,1782079238.2856386,0.528381,1300,1.5869
1055,1782079238.2864187,0.529161,1300,1.5869
1056,1782079238.2867317,0.529474,1307,1.5955
1057,1782079238.2872765,0.530019,1301,1.5881
1058,1782079238.287967,0.530709,1308,1.5967
1059,1782079238.28817,0.530912,1301,1.5881
1060,1782079238.2889552,0.531697,1307,1.5955
1061,1782079238.289136,0.531878,1303,1.5906
1062,1782079238.2896705,0.532413,1303,1.5906
1063,1782079238.290194,0.532936,1296,1.5820
1064,1782079238.2906861,0.533428,1300,1.5869
1065,1782079238.291194,0.533936,1294,1.5796
1066,1782079238.292021,0.534763,1297,1.5833
1067,1782079238.29224,0.534982,1293,1.5784
1068,1782079238.29268,0.535422,1293,1.5784
1069,1782079238.293378,0.536120,1290,1.5747
1070,1782079238.2940433,0.536785,1288,1.5723
1071,1782079238.2941616,0.536904,1289,1.5735
1072,1782079238.295222,0.537964,1291,1.5759
1073,1782079238.295291,0.538033,1292,1.5771
1074,1782079238.29589,0.538632,1298,1.5845
1075,1782079238.296775,0.539517,1299,1.5857
1076,1782079238.296841,0.539583,1294,1.5796
1077,1782079238.2971601,0.539902,1296,1.5820
1078,1782079238.2984815,0.541224,1297,1.5833
1079,1782079238.2986388,0.541381,1297,1.5833
1080,1782079238.2991927,0.541935,1298,1.5845
1081,1782079238.2992647,0.542007,1300,1.5869
1082,1782079238.3000693,0.542811,1298,1.5845
1083,1782079238.3001645,0.542907,1296,1.5820
1084,1782079238.3007512,0.543493,1299,1.5857
1085,1782079238.3013787,0.544121,1295,1.5808
1086,1782079238.304309,0.547051,1298,1.5845
1087,1782079238.304374,0.547116,1297,1.5833
1088,1782079238.3044276,0.547170,1293,1.5784
1089,1782079238.304464,0.547206,1293,1.5784
1090,1782079238.3045275,0.547270,1291,1.5759
1091,1782079238.3045795,0.547322,1296,1.5820
1092,1782079238.3046536,0.547396,1295,1.5808
1093,1782079238.3055818,0.548324,1295,1.5808
1094,1782079238.3057523,0.548494,1295,1.5808
1095,1782079238.3074942,0.550236,1296,1.5820
1096,1782079238.3077476,0.550490,1295,1.5808
1097,1782079238.3078203,0.550562,1298,1.5845
1098,1782079238.3078876,0.550630,1294,1.5796
1099,1782079238.308173,0.550915,1295,1.5808
1100,1782079238.309338,0.552080,1292,1.5771
1101,1782079238.3094707,0.552213,1300,1.5869
1102,1782079238.3096929,0.552435,1295,1.5808
1103,1782079238.3102374,0.552979,1292,1.5771
1104,1782079238.3107402,0.553482,1293,1.5784
1105,1782079238.3112745,0.554017,1293,1.5784
1106,1782079238.311743,0.554485,1287,1.5710
1107,1782079238.312257,0.554999,1286,1.5698
1108,1782079238.312715,0.555457,1288,1.5723
1109,1782079238.3131795,0.555922,1284,1.5674
1110,1782079238.3136876,0.556430,1280,1.5625
1111,1782079238.314202,0.556944,1283,1.5662
1112,1782079238.3147337,0.557476,1288,1.5723
1113,1782079238.3152716,0.558014,1285,1.5686
1114,1782079238.3157687,0.558511,1289,1.5735
1115,1782079238.316188,0.558930,1298,1.5845
1116,1782079238.3167484,0.559490,1294,1.5796
1117,1782079238.317174,0.559916,1293,1.5784
1118,1782079238.3177469,0.560489,1304,1.5918
1119,1782079238.3182678,0.561010,1311,1.6003
1120,1782079238.3189354,0.561677,1309,1.5979
1121,1782079238.3192203,0.561962,1316,1.6064
1122,1782079238.3197749,0.562517,1311,1.6003
1123,1782079238.3235,0.566242,1313,1.6028
1124,1782079238.3274777,0.570220,1309,1.5979
1125,1782079238.3301892,0.572931,1311,1.6003
1126,1782079238.3312612,0.574003,1316,1.6064
1127,1782079238.3313406,0.574083,1318,1.6089
1128,1782079238.332175,0.574917,1314,1.6040
1129,1782079238.332284,0.575026,1313,1.6028
1130,1782079238.3323166,0.575059,1314,1.6040
1131,1782079238.3323414,0.575083,1314,1.6040
1132,1782079238.33291,0.575652,1318,1.6089
1133,1782079238.3329418,0.575684,1317,1.6077
1134,1782079238.3334236,0.576166,1319,1.6101
1135,1782079238.3334558,0.576198,1321,1.6125
1136,1782079238.3334794,0.576221,1326,1.6187
1137,1782079238.3339267,0.576669,1314,1.6040
1138,1782079238.3339524,0.576694,1318,1.6089
1139,1782079238.3365078,0.579250,1317,1.6077
1140,1782079238.3365436,0.579286,1321,1.6125
1141,1782079238.336584,0.579326,1328,1.6211
1142,1782079238.3366113,0.579353,1319,1.6101
1143,1782079238.3366518,0.579394,1327,1.6199
1144,1782079238.3366957,0.579438,1325,1.6174
1145,1782079238.3367677,0.579510,1326,1.6187
1146,1782079238.336788,0.579530,1324,1.6162
1147,1782079238.3368073,0.579549,1324,1.6162
1148,1782079238.3368394,0.579581,1323,1.6150
1149,1782079238.3368683,0.579610,1324,1.6162
1150,1782079238.3369167,0.579659,1320,1.6113
1151,1782079238.336949,0.579691,1326,1.6187
1152,1782079238.3369997,0.579742,1323,1.6150
1153,1782079238.3370237,0.579766,1322,1.6138
1154,1782079238.3370643,0.579806,1318,1.6089
1155,1782079238.3370907,0.579833,1322,1.6138
1156,1782079238.3401437,0.582886,1324,1.6162
1157,1782079238.3401875,0.582930,1320,1.6113
1158,1782079238.3402874,0.583030,1325,1.6174
1159,1782079238.3403158,0.583058,1324,1.6162
1160,1782079238.34034,0.583082,1329,1.6223
1161,1782079238.3408883,0.583630,1331,1.6248
1162,1782079238.3409429,0.583685,1335,1.6296
1163,1782079238.340975,0.583717,1339,1.6345
1164,1782079238.3409975,0.583740,1336,1.6309
1165,1782079238.341501,0.584243,1343,1.6394
1166,1782079238.3420303,0.584772,1352,1.6504
1167,1782079238.34255,0.585292,1354,1.6528
1168,1782079238.3430643,0.585806,1354,1.6528
1169,1782079238.3436244,0.586366,1361,1.6614
1170,1782079238.343738,0.586480,1358,1.6577
1171,1782079238.3442318,0.586974,1360,1.6602
1172,1782079238.3447382,0.587480,1354,1.6528
1173,1782079238.3488019,0.591544,1355,1.6541
1174,1782079238.3489819,0.591724,1357,1.6565
1175,1782079238.3490448,0.591787,1351,1.6492
1176,1782079238.349099,0.591841,1349,1.6467
1177,1782079238.3491507,0.591893,1338,1.6333
1178,1782079238.3491948,0.591937,1338,1.6333
1179,1782079238.3492365,0.591979,1335,1.6296
1180,1782079238.3492897,0.592032,1331,1.6248
1181,1782079238.3493302,0.592072,1323,1.6150
1182,1782079238.3498294,0.592571,1323,1.6150
1183,1782079238.3507943,0.593536,1309,1.5979
1184,1782079238.3508742,0.593616,1313,1.6028
1185,1782079238.3525841,0.595326,1301,1.5881
1186,1782079238.3526697,0.595412,1302,1.5894
1187,1782079238.3527892,0.595531,1298,1.5845
1188,1782079238.3528545,0.595597,1297,1.5833
1189,1782079238.353306,0.596048,1294,1.5796
1190,1782079238.3537855,0.596528,1299,1.5857
1191,1782079238.354631,0.597373,1296,1.5820
1192,1782079238.3547995,0.597542,1295,1.5808
1193,1782079238.3553967,0.598139,1303,1.5906
1194,1782079238.3557773,0.598519,1304,1.5918
1195,1782079238.356279,0.599021,1304,1.5918
1196,1782079238.3567576,0.599500,1309,1.5979
1197,1782079238.3572657,0.600008,1313,1.6028
1198,1782079238.3578174,0.600559,1317,1.6077
1199,1782079238.358308,0.601050,1327,1.6199
1200,1782079238.3588037,0.601546,1333,1.6272
1201,1782079238.3592803,0.602022,1338,1.6333
1202,1782079238.3597965,0.602539,1341,1.6370
1203,1782079238.3602915,0.603034,1349,1.6467
1204,1782079238.3607907,0.603533,1356,1.6553
1205,1782079238.3612921,0.604034,1361,1.6614
1206,1782079238.3618069,0.604549,1370,1.6724
1207,1782079238.36229,0.605032,1370,1.6724
1208,1782079238.362786,0.605528,1374,1.6772
1209,1782079238.363735,0.606477,1374,1.6772
1210,1782079238.364059,0.606801,1374,1.6772
1211,1782079238.364333,0.607075,1374,1.6772
1212,1782079238.3648157,0.607558,1381,1.6858
1213,1782079238.3679626,0.610705,1377,1.6809
1214,1782079238.37343,0.616172,1381,1.6858
1215,1782079238.374145,0.616887,1382,1.6870
1216,1782079238.374193,0.616935,1380,1.6846
1217,1782079238.3742223,0.616964,1383,1.6882
1218,1782079238.3748996,0.617642,1378,1.6821
1219,1782079238.3749316,0.617674,1387,1.6931
1220,1782079238.375562,0.618304,1377,1.6809
1221,1782079238.3761203,0.618862,1380,1.6846
1222,1782079238.3761818,0.618924,1379,1.6833
1223,1782079238.376219,0.618961,1382,1.6870
1224,1782079238.3767445,0.619487,1377,1.6809
1225,1782079238.3767927,0.619535,1377,1.6809
1226,1782079238.3768356,0.619578,1381,1.6858
1227,1782079238.379155,0.621897,1375,1.6785
1228,1782079238.3792264,0.621969,1372,1.6748
1229,1782079238.3792827,0.622025,1371,1.6736
1230,1782079238.3793151,0.622057,1370,1.6724
1231,1782079238.3793683,0.622110,1371,1.6736
1232,1782079238.3794215,0.622164,1374,1.6772
1233,1782079238.3794572,0.622199,1377,1.6809
1234,1782079238.3795073,0.622249,1375,1.6785
1235,1782079238.3795433,0.622285,1370,1.6724
1236,1782079238.379575,0.622317,1371,1.6736
1237,1782079238.3796673,0.622409,1370,1.6724
1238,1782079238.3797553,0.622497,1368,1.6699
1239,1782079238.3798413,0.622583,1369,1.6711
1240,1782079238.379877,0.622619,1377,1.6809
1241,1782079238.3799012,0.622643,1376,1.6797
1242,1782079238.379925,0.622667,1377,1.6809
1243,1782079238.38421,0.626952,1375,1.6785
1244,1782079238.3843448,0.627087,1377,1.6809
1245,1782079238.385057,0.627799,1377,1.6809
1246,1782079238.3851304,0.627872,1377,1.6809
1247,1782079238.3851771,0.627919,1384,1.6895
1248,1782079238.3854444,0.628186,1377,1.6809
1249,1782079238.3855326,0.628275,1385,1.6907
1250,1782079238.3855653,0.628307,1385,1.6907
1251,1782079238.386442,0.629184,1389,1.6956
1252,1782079238.3864746,0.629217,1392,1.6992
1253,1782079238.3865025,0.629245,1392,1.6992
1254,1782079238.386545,0.629287,1390,1.6968
1255,1782079238.386571,0.629313,1388,1.6943
1256,1782079238.3871832,0.629925,1392,1.6992
1257,1782079238.3873153,0.630057,1389,1.6956
1258,1782079238.3880236,0.630766,1383,1.6882
1259,1782079238.3890293,0.631771,1388,1.6943
1260,1782079238.389188,0.631930,1387,1.6931
1261,1782079238.3893638,0.632106,1390,1.6968
1262,1782079238.390514,0.633256,1385,1.6907
1263,1782079238.3906415,0.633384,1392,1.6992
1264,1782079238.391788,0.634530,1396,1.7041
1265,1782079238.3918705,0.634613,1392,1.6992
1266,1782079238.3919756,0.634718,1395,1.7029
1267,1782079238.3926601,0.635402,1396,1.7041
1268,1782079238.3928607,0.635603,1401,1.7102
1269,1782079238.3958669,0.638609,1396,1.7041
1270,1782079238.3959534,0.638695,1395,1.7029
1271,1782079238.396003,0.638745,1388,1.6943
1272,1782079238.3960314,0.638773,1384,1.6895
1273,1782079238.3960562,0.638798,1383,1.6882
1274,1782079238.396077,0.638819,1377,1.6809
1275,1782079238.3963585,0.639101,1376,1.6797
1276,1782079238.3987613,0.641503,1366,1.6675
1277,1782079238.4009953,0.643737,1364,1.6650
1278,1782079238.4010735,0.643816,1359,1.6589
1279,1782079238.4011462,0.643888,1357,1.6565
1280,1782079238.4012449,0.643987,1354,1.6528
1281,1782079238.4012952,0.644037,1352,1.6504
1282,1782079238.4014,0.644142,1348,1.6455
1283,1782079238.4014258,0.644168,1348,1.6455
1284,1782079238.4014523,0.644194,1345,1.6418
1285,1782079238.4014728,0.644215,1344,1.6406
1286,1782079238.4018962,0.644638,1352,1.6504
1287,1782079238.4028049,0.645547,1354,1.6528
1288,1782079238.402851,0.645593,1350,1.6479
1289,1782079238.4033828,0.646125,1349,1.6467
1290,1782079238.4038734,0.646616,1351,1.6492
1291,1782079238.4043741,0.647116,1347,1.6443
1292,1782079238.4048557,0.647598,1359,1.6589
1293,1782079238.4053743,0.648116,1358,1.6577
1294,1782079238.4058769,0.648619,1358,1.6577
1295,1782079238.4063773,0.649119,1362,1.6626
1296,1782079238.4068818,0.649624,1372,1.6748
1297,1782079238.4073918,0.650134,1376,1.6797
1298,1782079238.4078813,0.650623,1387,1.6931
1299,1782079238.4083788,0.651121,1395,1.7029
1300,1782079238.4088635,0.651606,1403,1.7126
1301,1782079238.4093788,0.652121,1411,1.7224
1302,1782079238.4100869,0.652829,1420,1.7334
1303,1782079238.4103537,0.653096,1432,1.7480
1304,1782079238.4108968,0.653639,1433,1.7493
1305,1782079238.4183757,0.661118,1445,1.7639
1306,1782079238.420293,0.663035,1452,1.7725
1307,1782079238.42033,0.663072,1451,1.7712
1308,1782079238.4208732,0.663615,1451,1.7712
1309,1782079238.4209135,0.663656,1450,1.7700
1310,1782079238.421335,0.664077,1448,1.7676
1311,1782079238.421361,0.664103,1447,1.7664
1312,1782079238.421394,0.664136,1439,1.7566
1313,1782079238.4218054,0.664547,1436,1.7529
1314,1782079238.4221976,0.664940,1424,1.7383
1315,1782079238.4222224,0.664964,1420,1.7334
1316,1782079238.4225976,0.665340,1416,1.7285
1317,1782079238.4226258,0.665368,1404,1.7139
1318,1782079238.4248064,0.667548,1402,1.7114
1319,1782079238.4248528,0.667595,1400,1.7090
1320,1782079238.4249024,0.667645,1402,1.7114
1321,1782079238.4249427,0.667685,1408,1.7188
1322,1782079238.42497,0.667712,1411,1.7224
1323,1782079238.4250057,0.667748,1414,1.7261
1324,1782079238.4250321,0.667774,1414,1.7261
1325,1782079238.4250555,0.667798,1423,1.7371
1326,1782079238.4250834,0.667825,1425,1.7395
1327,1782079238.4251082,0.667850,1425,1.7395
1328,1782079238.4251463,0.667888,1435,1.7517
1329,1782079238.4251711,0.667913,1436,1.7529
1330,1782079238.4251935,0.667936,1434,1.7505
1331,1782079238.4272187,0.669961,1432,1.7480
1332,1782079238.4272463,0.669988,1431,1.7468
1333,1782079238.4272704,0.670012,1430,1.7456
1334,1782079238.4277089,0.670451,1428,1.7432
1335,1782079238.4277368,0.670479,1417,1.7297
1336,1782079238.4277768,0.670519,1416,1.7285
1337,1782079238.4278016,0.670544,1416,1.7285
1338,1782079238.42825,0.670992,1416,1.7285
1339,1782079238.428722,0.671464,1415,1.7273
1340,1782079238.4291933,0.671935,1423,1.7371
1341,1782079238.4296975,0.672440,1419,1.7322
1342,1782079238.4299195,0.672662,1424,1.7383
1343,1782079238.4324706,0.675213,1431,1.7468
1344,1782079238.4327385,0.675481,1435,1.7517
1345,1782079238.432819,0.675561,1443,1.7615
1346,1782079238.4328558,0.675598,1450,1.7700
1347,1782079238.433039,0.675781,1456,1.7773
1348,1782079238.43313,0.675872,1461,1.7834
1349,1782079238.4337678,0.676510,1469,1.7932
1350,1782079238.4343145,0.677057,1465,1.7883
1351,1782079238.4343877,0.677130,1474,1.7993
1352,1782079238.4370906,0.679833,1474,1.7993
1353,1782079238.4371274,0.679869,1480,1.8066
1354,1782079238.4372826,0.680025,1472,1.7969
1355,1782079238.4373324,0.680074,1473,1.7981
1356,1782079238.4373655,0.680108,1472,1.7969
1357,1782079238.4374902,0.680232,1472,1.7969
1358,1782079238.438411,0.681153,1472,1.7969
1359,1782079238.4397604,0.682503,1465,1.7883
1360,1782079238.4398103,0.682552,1457,1.7786
1361,1782079238.4398541,0.682596,1446,1.7651
1362,1782079238.4399033,0.682645,1428,1.7432
1363,1782079238.4408205,0.683563,1409,1.7200
1364,1782079238.4409094,0.683651,1394,1.7017
1365,1782079238.4414864,0.684228,1382,1.6870
1366,1782079238.4419754,0.684717,1372,1.6748
1367,1782079238.4424877,0.685230,1364,1.6650
1368,1782079238.442972,0.685714,1358,1.6577
1369,1782079238.4435008,0.686243,1353,1.6516
1370,1782079238.4439867,0.686729,1352,1.6504
1371,1782079238.444504,0.687246,1352,1.6504
1372,1782079238.4449642,0.687706,1360,1.6602
1373,1782079238.4455967,0.688339,1360,1.6602
1374,1782079238.446013,0.688755,1372,1.6748
1375,1782079238.4464803,0.689222,1375,1.6785
1376,1782079238.4469428,0.689685,1387,1.6931
1377,1782079238.4475172,0.690259,1386,1.6919
1378,1782079238.4480116,0.690754,1400,1.7090
1379,1782079238.4484892,0.691231,1393,1.7004
1380,1782079238.4490283,0.691770,1396,1.7041
1381,1782079238.4497101,0.692452,1398,1.7065
1382,1782079238.4499292,0.692671,1390,1.6968
1383,1782079238.4504974,0.693239,1385,1.6907
1384,1782079238.454127,0.696869,1384,1.6895
1385,1782079238.4541783,0.696920,1372,1.6748
1386,1782079238.4542005,0.696943,1370,1.6724
1387,1782079238.4598413,0.702583,1358,1.6577
1388,1782079238.4598854,0.702627,1351,1.6492
1389,1782079238.4603264,0.703068,1341,1.6370
1390,1782079238.4603589,0.703101,1342,1.6382
1391,1782079238.4607751,0.703517,1333,1.6272
1392,1782079238.4608054,0.703547,1343,1.6394
1393,1782079238.4612043,0.703946,1351,1.6492
1394,1782079238.4612343,0.703976,1363,1.6638
1395,1782079238.461621,0.704363,1374,1.6772
1396,1782079238.461646,0.704388,1394,1.7017
1397,1782079238.4620254,0.704767,1407,1.7175
1398,1782079238.4620497,0.704792,1427,1.7419
1399,1782079238.4657087,0.708451,1437,1.7542
1400,1782079238.4658048,0.708547,1452,1.7725
1401,1782079238.4658473,0.708589,1460,1.7822
1402,1782079238.4658756,0.708618,1467,1.7908
1403,1782079238.465914,0.708656,1463,1.7859
1404,1782079238.465937,0.708679,1472,1.7969
1405,1782079238.4659834,0.708725,1465,1.7883
1406,1782079238.4660077,0.708750,1472,1.7969
1407,1782079238.466031,0.708773,1467,1.7908
1408,1782079238.4660609,0.708803,1472,1.7969
1409,1782079238.4660828,0.708825,1471,1.7957
1410,1782079238.466105,0.708847,1477,1.8030
1411,1782079238.4661462,0.708888,1475,1.8005
1412,1782079238.468328,0.711070,1480,1.8066
1413,1782079238.4683592,0.711101,1473,1.7981
1414,1782079238.4683828,0.711125,1474,1.7993
1415,1782079238.4688356,0.711578,1468,1.7920
1416,1782079238.4688742,0.711616,1471,1.7957
1417,1782079238.4689164,0.711658,1462,1.7847
1418,1782079238.468948,0.711690,1466,1.7896
1419,1782079238.4689903,0.711732,1457,1.7786
1420,1782079238.4690135,0.711756,1464,1.7871
1421,1782079238.4695172,0.712259,1458,1.7798
1422,1782079238.4700193,0.712761,1459,1.7810
1423,1782079238.47053,0.713272,1457,1.7786
1424,1782079238.4710257,0.713768,1467,1.7908
1425,1782079238.4718492,0.714591,1463,1.7859
1426,1782079238.471949,0.714691,1473,1.7981
1427,1782079238.4749978,0.717740,1467,1.7908
1428,1782079238.475049,0.717791,1474,1.7993
1429,1782079238.4750903,0.717832,1473,1.7981
1430,1782079238.4751203,0.717862,1489,1.8176
1431,1782079238.4751477,0.717890,1496,1.8262
1432,1782079238.475177,0.717919,1517,1.8518
1433,1782079238.4761024,0.718844,1525,1.8616
1434,1782079238.477437,0.720179,1539,1.8787
1435,1782079238.4774866,0.720229,1549,1.8909
1436,1782079238.4775321,0.720274,1553,1.8958
1437,1782079238.4775589,0.720301,1556,1.8994
1438,1782079238.4780724,0.720814,1558,1.9019
1439,1782079238.4786549,0.721397,1565,1.9104
1440,1782079238.4791179,0.721860,1560,1.9043
1441,1782079238.479538,0.722280,1549,1.8909
1442,1782079238.480022,0.722764,1544,1.8848
1443,1782079238.4805372,0.723279,1537,1.8762
1444,1782079238.4810424,0.723784,1528,1.8652
1445,1782079238.4814882,0.724230,1512,1.8457
1446,1782079238.4821198,0.724862,1498,1.8286
1447,1782079238.4825535,0.725296,1487,1.8152
1448,1782079238.483094,0.725836,1474,1.7993
1449,1782079238.4835536,0.726296,1457,1.7786
1450,1782079238.4840977,0.726840,1447,1.7664
1451,1782079238.4845452,0.727287,1427,1.7419
1452,1782079238.4850817,0.727824,1414,1.7261
1453,1782079238.485536,0.728278,1403,1.7126
1454,1782079238.4861128,0.728855,1390,1.6968
1455,1782079238.4866128,0.729355,1390,1.6968
1456,1782079238.4873018,0.730044,1392,1.6992
1457,1782079238.4875712,0.730313,1395,1.7029
1458,1782079238.4881248,0.730867,1409,1.7200
1459,1782079238.4963408,0.739083,1416,1.7285
1460,1782079238.4965906,0.739333,1428,1.7432
1461,1782079238.4977756,0.740518,1443,1.7615
1462,1782079238.4978516,0.740594,1454,1.7749
1463,1782079238.4978752,0.740617,1476,1.8018
1464,1782079238.499322,0.742064,1480,1.8066
1465,1782079238.4993687,0.742111,1497,1.8274
1466,1782079238.4998446,0.742587,1508,1.8408
1467,1782079238.4998755,0.742618,1516,1.8506
1468,1782079238.5003197,0.743062,1516,1.8506
1469,1782079238.5003479,0.743090,1518,1.8530
1470,1782079238.5029445,0.745687,1513,1.8469
1471,1782079238.5030153,0.745757,1513,1.8469
1472,1782079238.5030513,0.745793,1504,1.8359
1473,1782079238.5030959,0.745838,1503,1.8347
1474,1782079238.5031295,0.745872,1499,1.8298
1475,1782079238.50316,0.745902,1497,1.8274
1476,1782079238.503194,0.745936,1495,1.8250
1477,1782079238.50325,0.745992,1500,1.8311
1478,1782079238.5032868,0.746029,1500,1.8311
1479,1782079238.503318,0.746060,1512,1.8457
1480,1782079238.5034165,0.746159,1528,1.8652
1481,1782079238.5035698,0.746312,1543,1.8835
1482,1782079238.5036042,0.746346,1566,1.9116
1483,1782079238.5036585,0.746401,1583,1.9324
1484,1782079238.503697,0.746439,1607,1.9617
1485,1782079238.503781,0.746523,1624,1.9824
1486,1782079238.5038157,0.746558,1636,1.9971
1487,1782079238.503868,0.746610,1657,2.0227
1488,1782079238.5039027,0.746645,1666,2.0337
1489,1782079238.5064373,0.749179,1678,2.0483
1490,1782079238.5064688,0.749211,1678,2.0483
1491,1782079238.5070093,0.749751,1684,2.0557
1492,1782079238.507041,0.749783,1689,2.0618
1493,1782079238.5070863,0.749828,1678,2.0483
1494,1782079238.507111,0.749853,1681,2.0520
1495,1782079238.5071397,0.749882,1675,2.0447
1496,1782079238.507166,0.749908,1672,2.0410
1497,1782079238.5077097,0.750452,1662,2.0288
1498,1782079238.5083077,0.751050,1657,2.0227
1499,1782079238.5088696,0.751612,1640,2.0020
1500,1782079238.5094368,0.752179,1630,1.9897
1501,1782079238.5100446,0.752787,1619,1.9763
1502,1782079238.5100877,0.752830,1613,1.9690
1503,1782079238.5106225,0.753365,1607,1.9617
1504,1782079238.511733,0.754475,1585,1.9348
1505,1782079238.511875,0.754617,1578,1.9263
1506,1782079238.5167193,0.759461,1573,1.9202
1507,1782079238.5168035,0.759546,1570,1.9165
1508,1782079238.5168293,0.759571,1566,1.9116
1509,1782079238.5169294,0.759671,1558,1.9019
1510,1782079238.5170934,0.759835,1548,1.8896
1511,1782079238.5171945,0.759937,1545,1.8860
1512,1782079238.5172248,0.759967,1533,1.8713
1513,1782079238.5172668,0.760009,1522,1.8579
1514,1782079238.517298,0.760040,1515,1.8494
1515,1782079238.5173275,0.760070,1504,1.8359
1516,1782079238.5173504,0.760092,1495,1.8250
1517,1782079238.517622,0.760364,1484,1.8115
1518,1782079238.5186172,0.761359,1478,1.8042
1519,1782079238.5202613,0.763003,1473,1.7981
1520,1782079238.5203407,0.763083,1458,1.7798
1521,1782079238.5203712,0.763113,1461,1.7834
1522,1782079238.520409,0.763151,1455,1.7761
1523,1782079238.5206547,0.763397,1454,1.7749
1524,1782079238.5215206,0.764263,1459,1.7810
1525,1782079238.5216084,0.764350,1461,1.7834
1526,1782079238.5221777,0.764920,1467,1.7908
1527,1782079238.5226858,0.765428,1471,1.7957
1528,1782079238.523176,0.765918,1486,1.8140
1529,1782079238.523692,0.766434,1488,1.8164
1530,1782079238.5241866,0.766929,1502,1.8335
1531,1782079238.5246694,0.767411,1511,1.8445
1532,1782079238.525156,0.767898,1525,1.8616
1533,1782079238.5256262,0.768368,1536,1.8750
1534,1782079238.526125,0.768867,1552,1.8945
1535,1782079238.526649,0.769391,1563,1.9080
1536,1782079238.5271509,0.769893,1572,1.9189
1537,1782079238.5275931,0.770335,1580,1.9287
1538,1782079238.528131,0.770873,1580,1.9287
1539,1782079238.5286477,0.771390,1588,1.9385
1540,1782079238.5291204,0.771863,1597,1.9495
1541,1782079238.5296233,0.772365,1597,1.9495
1542,1782079238.530546,0.773288,1604,1.9580
1543,1782079238.530716,0.773458,1605,1.9592
1544,1782079238.5313096,0.774052,1602,1.9556
1545,1782079238.531768,0.774510,1600,1.9531
1546,1782079238.532127,0.774869,1596,1.9482
1547,1782079238.532655,0.775397,1593,1.9446
1548,1782079238.5400796,0.782822,1588,1.9385
1549,1782079238.5401652,0.782907,1579,1.9275
1550,1782079238.543671,0.786413,1578,1.9263
1551,1782079238.5453038,0.788046,1570,1.9165
1552,1782079238.5460541,0.788796,1567,1.9128
1553,1782079238.5461676,0.788910,1553,1.8958
1554,1782079238.5475986,0.790341,1546,1.8872
1555,1782079238.5485735,0.791316,1536,1.8750
1556,1782079238.5486958,0.791438,1525,1.8616
1557,1782079238.5524535,0.795196,1520,1.8555
1558,1782079238.552565,0.795307,1518,1.8530
1559,1782079238.5526388,0.795381,1517,1.8518
1560,1782079238.5527337,0.795476,1516,1.8506
1561,1782079238.5527756,0.795518,1512,1.8457
1562,1782079238.5528111,0.795553,1509,1.8420
1563,1782079238.5528505,0.795593,1506,1.8384
1564,1782079238.5528824,0.795624,1504,1.8359
1565,1782079238.552942,0.795684,1501,1.8323
1566,1782079238.5571954,0.799937,1490,1.8188
1567,1782079238.5572906,0.800033,1493,1.8225
1568,1782079238.5573328,0.800075,1488,1.8164
1569,1782079238.557374,0.800116,1485,1.8127
1570,1782079238.5579958,0.800738,1487,1.8152
1571,1782079238.5580869,0.800829,1479,1.8054
1572,1782079238.5581589,0.800901,1482,1.8091
1573,1782079238.5587513,0.801493,1480,1.8066
1574,1782079238.5588222,0.801564,1479,1.8054
1575,1782079238.5588598,0.801602,1479,1.8054
1576,1782079238.5588996,0.801642,1484,1.8115
1577,1782079238.5594373,0.802179,1483,1.8103
1578,1782079238.559531,0.802273,1490,1.8188
1579,1782079238.5596406,0.802383,1492,1.8213
1580,1782079238.559715,0.802457,1496,1.8262
1581,1782079238.5597498,0.802492,1499,1.8298
1582,1782079238.5597854,0.802527,1493,1.8225
1583,1782079238.5598185,0.802561,1493,1.8225
1584,1782079238.560426,0.803168,1491,1.8201
1585,1782079238.560492,0.803234,1483,1.8103
1586,1782079238.5605302,0.803272,1480,1.8066
1587,1782079238.5611742,0.803916,1479,1.8054
1588,1782079238.5612419,0.803984,1478,1.8042
1589,1782079238.5618188,0.804561,1470,1.7944
1590,1782079238.5618927,0.804635,1468,1.7920
1591,1782079238.5619304,0.804672,1471,1.7957
1592,1782079238.5619683,0.804710,1468,1.7920
1593,1782079238.5664003,0.809142,1474,1.7993
1594,1782079238.56651,0.809252,1484,1.8115
1595,1782079238.5665605,0.809303,1494,1.8237
1596,1782079238.566591,0.809333,1505,1.8372
1597,1782079238.5666265,0.809369,1514,1.8481
1598,1782079238.566728,0.809470,1520,1.8555
1599,1782079238.5667803,0.809522,1531,1.8689
1600,1782079238.566817,0.809559,1538,1.8774
1601,1782079238.566844,0.809586,1551,1.8933
1602,1782079238.566881,0.809623,1556,1.8994
1603,1782079238.5669098,0.809652,1564,1.9092
1604,1782079238.5669558,0.809698,1573,1.9202
1605,1782079238.5669837,0.809726,1576,1.9238
1606,1782079238.5670145,0.809757,1580,1.9287
1607,1782079238.56704,0.809782,1580,1.9287
1608,1782079238.5670643,0.809806,1576,1.9238
1609,1782079238.5670965,0.809839,1562,1.9067
1610,1782079238.5671268,0.809869,1546,1.8872
1611,1782079238.5671568,0.809899,1527,1.8640
1612,1782079238.5672011,0.809943,1507,1.8396
1613,1782079238.567235,0.809977,1481,1.8079
1614,1782079238.5672626,0.810005,1455,1.7761
1615,1782079238.5682836,0.811026,1438,1.7554
1616,1782079238.5698287,0.812571,1424,1.7383
1617,1782079238.56989,0.812632,1417,1.7297
1618,1782079238.5699537,0.812696,1408,1.7188
1619,1782079238.5699954,0.812737,1405,1.7151
1620,1782079238.5700185,0.812761,1419,1.7322
1621,1782079238.5700474,0.812789,1426,1.7407
1622,1782079238.570236,0.812978,1432,1.7480
1623,1782079238.571092,0.813834,1451,1.7712
1624,1782079238.5711963,0.813938,1460,1.7822
1625,1782079238.57179,0.814532,1470,1.7944
1626,1782079238.5721943,0.814936,1483,1.8103
1627,1782079238.5727973,0.815539,1486,1.8140
1628,1782079238.5732558,0.815998,1494,1.8237
1629,1782079238.5737834,0.816525,1505,1.8372
1630,1782079238.5742438,0.816986,1511,1.8445
1631,1782079238.5746806,0.817423,1517,1.8518
1632,1782079238.5752177,0.817960,1520,1.8555
1633,1782079238.5757198,0.818462,1530,1.8677
1634,1782079238.5762703,0.819012,1528,1.8652
1635,1782079238.5767126,0.819455,1531,1.8689
1636,1782079238.5772316,0.819974,1533,1.8713
1637,1782079238.577771,0.820513,1528,1.8652
1638,1782079238.5782762,0.821018,1527,1.8640
1639,1782079238.5787663,0.821508,1518,1.8530
1640,1782079238.579268,0.822010,1512,1.8457
1641,1782079238.5797253,0.822467,1505,1.8372
1642,1782079238.5801876,0.822930,1504,1.8359
1643,1782079238.5807252,0.823467,1499,1.8298
1644,1782079238.5811937,0.823936,1500,1.8311
1645,1782079238.5818417,0.824584,1495,1.8250
1646,1782079238.5822797,0.825022,1499,1.8298
1647,1782079238.5827854,0.825527,1494,1.8237
1648,1782079238.5848792,0.827621,1501,1.8323
1649,1782079238.585,0.827742,1503,1.8347
1650,1782079238.5850534,0.827796,1510,1.8433
1651,1782079238.5850973,0.827839,1517,1.8518
1652,1782079238.5852056,0.827948,1521,1.8567
1653,1782079238.5857248,0.828467,1531,1.8689
1654,1782079238.5862155,0.828958,1533,1.8713
1655,1782079238.5867968,0.829539,1545,1.8860
1656,1782079238.5883565,0.831099,1552,1.8945
1657,1782079238.5992343,0.841976,1555,1.8982
1658,1782079238.5993178,0.842060,1553,1.8958
1659,1782079238.6034899,0.846232,1550,1.8921
1660,1782079238.603551,0.846293,1556,1.8994
1661,1782079238.6043308,0.847073,1561,1.9055
1662,1782079238.6048732,0.847615,1563,1.9080
1663,1782079238.604907,0.847649,1566,1.9116
1664,1782079238.6049337,0.847676,1570,1.9165
1665,1782079238.6054332,0.848175,1572,1.9189
1666,1782079238.6054616,0.848204,1583,1.9324
1667,1782079238.605957,0.848699,1591,1.9421
1668,1782079238.605986,0.848728,1599,1.9519
1669,1782079238.6060066,0.848749,1605,1.9592
1670,1782079238.6065085,0.849251,1604,1.9580
1671,1782079238.606574,0.849316,1608,1.9629
1672,1782079238.6104143,0.853156,1611,1.9666
1673,1782079238.6104898,0.853232,1610,1.9653
1674,1782079238.610509,0.853251,1605,1.9592
1675,1782079238.6105263,0.853268,1603,1.9568
1676,1782079238.6105645,0.853307,1606,1.9604
1677,1782079238.610607,0.853349,1603,1.9568
1678,1782079238.6106286,0.853371,1600,1.9531
1679,1782079238.610662,0.853404,1602,1.9556
1680,1782079238.610686,0.853428,1597,1.9495
1681,1782079238.6107244,0.853467,1599,1.9519
1682,1782079238.6107488,0.853491,1605,1.9592
1683,1782079238.6107655,0.853508,1601,1.9543
1684,1782079238.6108007,0.853543,1602,1.9556
1685,1782079238.6108236,0.853566,1603,1.9568
1686,1782079238.610847,0.853589,1602,1.9556
1687,1782079238.6108658,0.853608,1604,1.9580
1688,1782079238.6109002,0.853642,1608,1.9629
1689,1782079238.6109245,0.853667,1601,1.9543
1690,1782079238.6109433,0.853685,1599,1.9519
1691,1782079238.6109784,0.853720,1595,1.9470
1692,1782079238.6110022,0.853744,1586,1.9360
1693,1782079238.6141238,0.856866,1588,1.9385
1694,1782079238.6153102,0.858052,1579,1.9275
1695,1782079238.615446,0.858188,1570,1.9165
1696,1782079238.616211,0.858953,1566,1.9116
1697,1782079238.6163044,0.859046,1564,1.9092
1698,1782079238.6163352,0.859077,1563,1.9080
1699,1782079238.616824,0.859566,1555,1.8982
1700,1782079238.6168835,0.859626,1558,1.9019
1701,1782079238.616924,0.859666,1552,1.8945
1702,1782079238.6169498,0.859692,1553,1.8958
1703,1782079238.616992,0.859734,1556,1.8994
1704,1782079238.6170287,0.859771,1558,1.9019
1705,1782079238.617053,0.859795,1561,1.9055
1706,1782079238.6176388,0.860381,1564,1.9092
1707,1782079238.6177073,0.860449,1559,1.9031
1708,1782079238.6177413,0.860483,1561,1.9055
1709,1782079238.6183937,0.861136,1568,1.9141
1710,1782079238.6189044,0.861646,1567,1.9128
1711,1782079238.6189594,0.861701,1569,1.9153
1712,1782079238.6189885,0.861731,1565,1.9104
1713,1782079238.6190166,0.861759,1565,1.9104
1714,1782079238.6192276,0.861970,1561,1.9055
1715,1782079238.619838,0.862580,1560,1.9043
1716,1782079238.6199224,0.862664,1552,1.8945
1717,1782079238.6199656,0.862708,1551,1.8933
1718,1782079238.6199918,0.862734,1539,1.8787
1719,1782079238.620021,0.862763,1536,1.8750
1720,1782079238.620047,0.862789,1530,1.8677
1721,1782079238.6206326,0.863375,1518,1.8530
1722,1782079238.6207008,0.863443,1514,1.8481
1723,1782079238.6239655,0.866708,1508,1.8408
1724,1782079238.624045,0.866787,1504,1.8359
1725,1782079238.6240747,0.866817,1502,1.8335
1726,1782079238.6241844,0.866926,1500,1.8311
1727,1782079238.6242383,0.866980,1502,1.8335
1728,1782079238.6243496,0.867092,1502,1.8335
1729,1782079238.6245866,0.867329,1507,1.8396
1730,1782079238.6246307,0.867373,1512,1.8457
1731,1782079238.6256328,0.868375,1518,1.8530
1732,1782079238.627344,0.870086,1521,1.8567
1733,1782079238.6273973,0.870139,1531,1.8689
1734,1782079238.6274352,0.870177,1532,1.8701
1735,1782079238.627462,0.870204,1536,1.8750
1736,1782079238.6274893,0.870231,1539,1.8787
1737,1782079238.6279,0.870642,1543,1.8835
1738,1782079238.628409,0.871151,1545,1.8860
1739,1782079238.6289868,0.871729,1540,1.8799
1740,1782079238.6294434,0.872185,1543,1.8835
1741,1782079238.629811,0.872553,1542,1.8823
1742,1782079238.630312,0.873054,1548,1.8896
1743,1782079238.630826,0.873568,1553,1.8958
1744,1782079238.6314611,0.874203,1551,1.8933
1745,1782079238.6319184,0.874660,1553,1.8958
1746,1782079238.632443,0.875185,1559,1.9031
1747,1782079238.6329372,0.875679,1557,1.9006
1748,1782079238.6334355,0.876178,1558,1.9019
1749,1782079238.6339405,0.876683,1559,1.9031
1750,1782079238.6343455,0.877088,1568,1.9141
1751,1782079238.6348553,0.877597,1569,1.9153
1752,1782079238.6353476,0.878090,1585,1.9348
1753,1782079238.6358414,0.878583,1584,1.9336
1754,1782079238.6363397,0.879082,1584,1.9336
1755,1782079238.6368515,0.879594,1588,1.9385
1756,1782079238.6373258,0.880068,1588,1.9385
1757,1782079238.6382604,0.881002,1586,1.9360
1758,1782079238.6383185,0.881061,1583,1.9324
1759,1782079238.6388416,0.881584,1577,1.9250
1760,1782079238.6393616,0.882104,1569,1.9153
1761,1782079238.6398835,0.882626,1558,1.9019
1762,1782079238.64035,0.883092,1549,1.8909
1763,1782079238.6520438,0.894786,1530,1.8677
1764,1782079238.652149,0.894891,1520,1.8555
1765,1782079238.6521993,0.894941,1513,1.8469
1766,1782079238.6522415,0.894984,1498,1.8286
1767,1782079238.6522903,0.895032,1490,1.8188
1768,1782079238.6534204,0.896163,1483,1.8103
1769,1782079238.6535058,0.896248,1471,1.7957
1770,1782079238.6535292,0.896271,1470,1.7944
1771,1782079238.6582983,0.901040,1458,1.7798
1772,1782079238.6584516,0.901194,1463,1.7859
1773,1782079238.6585088,0.901251,1455,1.7761
1774,1782079238.6586328,0.901375,1448,1.7676
1775,1782079238.658687,0.901429,1448,1.7676
1776,1782079238.6587439,0.901486,1445,1.7639
1777,1782079238.658773,0.901515,1439,1.7566
1778,1782079238.6619008,0.904643,1439,1.7566
1779,1782079238.6619601,0.904702,1436,1.7529
1780,1782079238.6619895,0.904732,1437,1.7542
1781,1782079238.662026,0.904768,1433,1.7493
1782,1782079238.6620553,0.904797,1429,1.7444
1783,1782079238.6625485,0.905291,1429,1.7444
1784,1782079238.662589,0.905331,1421,1.7346
1785,1782079238.662674,0.905416,1413,1.7249
1786,1782079238.6627123,0.905454,1407,1.7175
1787,1782079238.6627407,0.905483,1402,1.7114
1788,1782079238.662816,0.905558,1398,1.7065
1789,1782079238.6628728,0.905615,1396,1.7041
1790,1782079238.6629086,0.905651,1394,1.7017
1791,1782079238.6629996,0.905742,1395,1.7029
1792,1782079238.6630332,0.905775,1390,1.6968
1793,1782079238.6630814,0.905823,1397,1.7053
1794,1782079238.663729,0.906471,1399,1.7078
1795,1782079238.6637993,0.906541,1402,1.7114
1796,1782079238.6638925,0.906635,1403,1.7126
1797,1782079238.6640394,0.906781,1409,1.7200
1798,1782079238.6640897,0.906832,1418,1.7310
1799,1782079238.6641204,0.906862,1422,1.7358
1800,1782079238.664154,0.906896,1425,1.7395
1801,1782079238.664183,0.906925,1439,1.7566
1802,1782079238.6642027,0.906945,1448,1.7676
1803,1782079238.6642282,0.906970,1456,1.7773
1804,1782079238.664301,0.907043,1465,1.7883
1805,1782079238.6649723,0.907714,1475,1.8005
1806,1782079238.6650705,0.907813,1494,1.8237
1807,1782079238.66511,0.907852,1510,1.8433
1808,1782079238.665168,0.907910,1521,1.8567
1809,1782079238.665217,0.907959,1537,1.8762
1810,1782079238.6652462,0.907988,1549,1.8909
1811,1782079238.6661024,0.908844,1558,1.9019
1812,1782079238.6662052,0.908947,1566,1.9116
1813,1782079238.6662738,0.909016,1579,1.9275
1814,1782079238.667036,0.909778,1590,1.9409
1815,1782079238.667104,0.909846,1600,1.9531
1816,1782079238.6679447,0.910687,1616,1.9727
1817,1782079238.6680398,0.910782,1620,1.9775
1818,1782079238.668822,0.911564,1635,1.9958
1819,1782079238.6689637,0.911706,1640,2.0020
1820,1782079238.672833,0.915575,1648,2.0117
1821,1782079238.6730154,0.915757,1656,2.0215
1822,1782079238.6730998,0.915842,1665,2.0325
1823,1782079238.6731374,0.915879,1667,2.0349
1824,1782079238.6731777,0.915920,1669,2.0374
1825,1782079238.673212,0.915954,1679,2.0496
1826,1782079238.6732674,0.916009,1681,2.0520
1827,1782079238.6733055,0.916048,1684,2.0557
1828,1782079238.6733906,0.916133,1689,2.0618
1829,1782079238.6746573,0.917399,1687,2.0593
1830,1782079238.676669,0.919411,1686,2.0581
1831,1782079238.6767612,0.919503,1682,2.0532
1832,1782079238.6768064,0.919549,1676,2.0459
1833,1782079238.6768508,0.919593,1669,2.0374
1834,1782079238.6769187,0.919661,1664,2.0312
1835,1782079238.6769562,0.919698,1655,2.0203
1836,1782079238.6775365,0.920279,1644,2.0068
1837,1782079238.6782417,0.920984,1627,1.9861
1838,1782079238.6785138,0.921256,1613,1.9690
1839,1782079238.6790144,0.921757,1598,1.9507
1840,1782079238.6794882,0.922230,1582,1.9312
1841,1782079238.679971,0.922713,1557,1.9006
1842,1782079238.6804914,0.923234,1541,1.8811
1843,1782079238.6810708,0.923813,1518,1.8530
1844,1782079238.6815934,0.924335,1499,1.8298
1845,1782079238.6819715,0.924714,1482,1.8091
1846,1782079238.6825478,0.925290,1460,1.7822
1847,1782079238.683019,0.925761,1450,1.7700
1848,1782079238.68353,0.926272,1444,1.7627
1849,1782079238.684005,0.926747,1427,1.7419
1850,1782079238.684528,0.927270,1425,1.7395
1851,1782079238.6849995,0.927742,1418,1.7310
1852,1782079238.685531,0.928273,1422,1.7358
1853,1782079238.6860044,0.928746,1423,1.7371
1854,1782079238.6865404,0.929282,1426,1.7407
1855,1782079238.6870155,0.929758,1429,1.7444
1856,1782079238.687552,0.930294,1428,1.7432
1857,1782079238.6880343,0.930776,1427,1.7419
1858,1782079238.689145,0.931887,1431,1.7468
1859,1782079238.6892757,0.932018,1428,1.7432
1860,1782079238.6895504,0.932292,1421,1.7346
1861,1782079238.6900165,0.932759,1420,1.7334
1862,1782079238.690623,0.933365,1418,1.7310
1863,1782079238.6935236,0.936266,1418,1.7310
1864,1782079238.6962316,0.938974,1410,1.7212
1865,1782079238.6967611,0.939503,1408,1.7188
1866,1782079238.7068932,0.949635,1393,1.7004
1867,1782079238.7070806,0.949823,1386,1.6919
1868,1782079238.707187,0.949929,1379,1.6833
1869,1782079238.7093449,0.952087,1377,1.6809
1870,1782079238.7119153,0.954657,1377,1.6809
1871,1782079238.7132258,0.955968,1390,1.6968
1872,1782079238.7193239,0.962066,1388,1.6943
1873,1782079238.7195494,0.962291,1401,1.7102
1874,1782079238.7196703,0.962412,1396,1.7041
1875,1782079238.7197545,0.962497,1404,1.7139
1876,1782079238.71981,0.962552,1403,1.7126
1877,1782079238.7199614,0.962703,1411,1.7224
1878,1782079238.7200515,0.962794,1410,1.7212
1879,1782079238.7201195,0.962862,1420,1.7334
1880,1782079238.7201679,0.962910,1425,1.7395
1881,1782079238.7202492,0.962991,1430,1.7456
1882,1782079238.7203295,0.963072,1436,1.7529
1883,1782079238.7255754,0.968318,1447,1.7664
1884,1782079238.726881,0.969623,1459,1.7810
1885,1782079238.72707,0.969812,1466,1.7896
1886,1782079238.7271338,0.969876,1477,1.8030
1887,1782079238.7272232,0.969965,1493,1.8225
1888,1782079238.728357,0.971099,1494,1.8237
1889,1782079238.7285771,0.971319,1511,1.8445
1890,1782079238.728665,0.971407,1516,1.8506
1891,1782079238.7287154,0.971457,1539,1.8787
1892,1782079238.7287636,0.971506,1556,1.8994
1893,1782079238.7298386,0.972581,1569,1.9153
1894,1782079238.7299786,0.972721,1583,1.9324
1895,1782079238.73022,0.972962,1595,1.9470
1896,1782079238.7303123,0.973054,1608,1.9629
1897,1782079238.7304277,0.973170,1613,1.9690
1898,1782079238.7307572,0.973499,1615,1.9714
1899,1782079238.7308412,0.973583,1612,1.9678
1900,1782079238.7309954,0.973737,1610,1.9653
1901,1782079238.731168,0.973910,1595,1.9470
1902,1782079238.731242,0.973984,1575,1.9226
1903,1782079238.7326548,0.975397,1559,1.9031
1904,1782079238.7327435,0.975486,1550,1.8921
1905,1782079238.732843,0.975585,1544,1.8848
1906,1782079238.7329216,0.975664,1529,1.8665
1907,1782079238.7329822,0.975724,1528,1.8652
1908,1782079238.7330558,0.975798,1525,1.8616
1909,1782079238.733109,0.975851,1519,1.8542
1910,1782079238.7342463,0.976988,1507,1.8396
1911,1782079238.734404,0.977146,1508,1.8408
1912,1782079238.7344937,0.977236,1497,1.8274
1913,1782079238.7355888,0.978331,1492,1.8213
1914,1782079238.7357178,0.978460,1473,1.7981
1915,1782079238.7357852,0.978527,1464,1.7871
1916,1782079238.7358327,0.978575,1442,1.7603
1917,1782079238.7368217,0.979564,1425,1.7395
1918,1782079238.7369838,0.979726,1397,1.7053
1919,1782079238.7371001,0.979842,1378,1.6821
1920,1782079238.737148,0.979890,1351,1.6492
1921,1782079238.738129,0.980871,1328,1.6211
1922,1782079238.738264,0.981006,1306,1.5942
1923,1782079238.7383249,0.981067,1288,1.5723
1924,1782079238.738387,0.981129,1269,1.5491
1925,1782079238.7384317,0.981174,1267,1.5466
1926,1782079238.7384763,0.981218,1260,1.5381
1927,1782079238.7438078,0.986550,1267,1.5466
1928,1782079238.74391,0.986652,1278,1.5601
1929,1782079238.7439773,0.986719,1295,1.5808
1930,1782079238.7440214,0.986763,1323,1.6150
1931,1782079238.7441514,0.986893,1348,1.6455
1932,1782079238.7441998,0.986942,1376,1.6797
1933,1782079238.7442505,0.986993,1405,1.7151
1934,1782079238.7442904,0.987032,1433,1.7493
1935,1782079238.7443614,0.987103,1466,1.7896
1936,1782079238.744409,0.987151,1490,1.8188
1937,1782079238.7444572,0.987199,1510,1.8433
1938,1782079238.7444932,0.987235,1528,1.8652
1939,1782079238.7445352,0.987277,1545,1.8860
1940,1782079238.7446148,0.987357,1561,1.9055
1941,1782079238.7447057,0.987448,1571,1.9177
1942,1782079238.7447577,0.987500,1576,1.9238
1943,1782079238.7448077,0.987550,1582,1.9312
1944,1782079238.744841,0.987583,1590,1.9409
1945,1782079238.7448888,0.987631,1593,1.9446
1946,1782079238.7449255,0.987668,1595,1.9470
1947,1782079238.7449625,0.987705,1598,1.9507
1948,1782079238.7449927,0.987735,1607,1.9617
1949,1782079238.7450302,0.987772,1606,1.9604
1950,1782079238.7450793,0.987821,1608,1.9629
1951,1782079238.74511,0.987852,1615,1.9714
1952,1782079238.7451577,0.987900,1619,1.9763
1953,1782079238.7451947,0.987937,1626,1.9849
1954,1782079238.7452478,0.987990,1635,1.9958
1955,1782079238.745286,0.988028,1648,2.0117
1956,1782079238.7453444,0.988086,1653,2.0178
1957,1782079238.7464948,0.989237,1667,2.0349
1958,1782079238.7467613,0.989503,1666,2.0337
1959,1782079238.749407,0.992149,1666,2.0337
1960,1782079238.7495449,0.992287,1663,2.0300
1961,1782079238.7496471,0.992389,1659,2.0251
1962,1782079238.7496958,0.992438,1661,2.0276
1963,1782079238.749732,0.992474,1649,2.0129
1964,1782079238.749766,0.992508,1645,2.0081
1965,1782079238.7498293,0.992571,1628,1.9873
1966,1782079238.7498624,0.992604,1619,1.9763
1967,1782079238.749902,0.992644,1607,1.9617
1968,1782079238.7499344,0.992676,1598,1.9507
1969,1782079238.749965,0.992707,1593,1.9446
1970,1782079238.7500095,0.992752,1592,1.9434
1971,1782079238.7500424,0.992785,1590,1.9409
1972,1782079238.7501328,0.992875,1587,1.9373
1973,1782079238.7501802,0.992922,1592,1.9434
1974,1782079238.750215,0.992957,1596,1.9482
1975,1782079238.7502532,0.992995,1599,1.9519
1976,1782079238.75029,0.993032,1601,1.9543
1977,1782079238.750325,0.993067,1597,1.9495
1978,1782079238.7503605,0.993103,1596,1.9482
1979,1782079238.7503932,0.993135,1580,1.9287
1980,1782079238.7504275,0.993170,1571,1.9177
1981,1782079238.7504594,0.993201,1555,1.8982
1982,1782079238.7505739,0.993316,1539,1.8787
1983,1782079238.7515783,0.994320,1518,1.8530
1984,1782079238.7516642,0.994406,1504,1.8359
1985,1782079238.75227,0.995012,1490,1.8188
1986,1782079238.7526484,0.995390,1482,1.8091
1987,1782079238.7531586,0.995901,1478,1.8042
1988,1782079238.753641,0.996383,1476,1.8018
1989,1782079238.7541602,0.996902,1474,1.7993
1990,1782079238.7546134,0.997355,1476,1.8018
1991,1782079238.7551644,0.997906,1484,1.8115
1992,1782079238.7556157,0.998358,1498,1.8286
1993,1782079238.7561584,0.998900,1512,1.8457
1994,1782079238.7565866,0.999329,1525,1.8616
1995,1782079238.7571702,0.999912,1541,1.8811
1996,1782079238.7575943,1.000336,1564,1.9092
1997,1782079238.7581053,1.000847,1581,1.9299
1998,1782079238.7586002,1.001342,1591,1.9421
1999,1782079238.7591124,1.001854,1605,1.9592
2000,1782079238.7595866,1.002329,1620,1.9775
2001,1782079238.760839,1.003581,1632,1.9922
2002,1782079238.7608898,1.003632,1637,1.9983
2003,1782079238.7610927,1.003835,1637,1.9983
2004,1782079238.7616024,1.004344,1633,1.9934
2005,1782079238.7620897,1.004832,1618,1.9751
2006,1782079238.7638633,1.006605,1612,1.9678
2007,1782079238.7691748,1.011917,1598,1.9507
2008,1782079238.7796452,1.022387,1594,1.9458
2009,1782079238.7797809,1.022523,1578,1.9263
2010,1782079238.7813115,1.024054,1560,1.9043
2011,1782079238.7814276,1.024170,1540,1.8799
2012,1782079238.7824771,1.025219,1514,1.8481
2013,1782079238.782552,1.025294,1481,1.8079
2014,1782079238.7854154,1.028157,1448,1.7676
2015,1782079238.785502,1.028244,1414,1.7261
2016,1782079238.7876039,1.030346,1380,1.6846
2017,1782079238.7903008,1.033043,1343,1.6394
2018,1782079238.7903664,1.033108,1312,1.6016
2019,1782079238.790417,1.033159,1285,1.5686
2020,1782079238.7904963,1.033238,1257,1.5344
2021,1782079238.7905462,1.033288,1237,1.5100
2022,1782079238.7905848,1.033327,1234,1.5063
2023,1782079238.7906134,1.033355,1231,1.5027
2024,1782079238.7906814,1.033423,1229,1.5002
2025,1782079238.7907324,1.033474,1240,1.5137
2026,1782079238.790766,1.033508,1256,1.5332
2027,1782079238.7908232,1.033565,1276,1.5576
2028,1782079238.7908616,1.033604,1300,1.5869
2029,1782079238.7909324,1.033674,1323,1.6150
2030,1782079238.7961204,1.038862,1353,1.6516
2031,1782079238.7963345,1.039077,1379,1.6833
2032,1782079238.7964828,1.039225,1400,1.7090
2033,1782079238.7965877,1.039330,1410,1.7212
2034,1782079238.7967122,1.039454,1425,1.7395
2035,1782079238.7982247,1.040967,1440,1.7578
2036,1782079238.7983153,1.041057,1444,1.7627
2037,1782079238.79837,1.041112,1453,1.7737
2038,1782079238.7984276,1.041170,1460,1.7822
2039,1782079238.7984676,1.041210,1475,1.8005
2040,1782079238.7985094,1.041251,1491,1.8201
2041,1782079238.798577,1.041319,1510,1.8433
2042,1782079238.7986214,1.041363,1536,1.8750
2043,1782079238.7986822,1.041424,1569,1.9153
2044,1782079238.7987282,1.041470,1600,1.9531
2045,1782079238.7987587,1.041501,1632,1.9922
2046,1782079238.7995222,1.042264,1659,2.0251
2047,1782079238.7995548,1.042297,1684,2.0557
2048,1782079238.7995818,1.042324,1707,2.0837
2049,1782079238.7996385,1.042381,1717,2.0959
2050,1782079238.7996924,1.042434,1721,2.1008
2051,1782079238.799726,1.042468,1718,2.0972
2052,1782079238.799774,1.042516,1717,2.0959
2053,1782079238.7998054,1.042547,1710,2.0874
2054,1782079238.7998354,1.042578,1705,2.0813
2055,1782079238.8005545,1.043297,1706,2.0825
2056,1782079238.800627,1.043369,1712,2.0898
2057,1782079238.8006601,1.043402,1715,2.0935
2058,1782079238.8006914,1.043433,1720,2.0996
2059,1782079238.8007395,1.043482,1727,2.1082
2060,1782079238.8007705,1.043513,1737,2.1204
2061,1782079238.8008137,1.043556,1742,2.1265
2062,1782079238.8008409,1.043583,1742,2.1265
2063,1782079238.8015428,1.044285,1749,2.1350
2064,1782079238.801575,1.044317,1750,2.1362
2065,1782079238.801639,1.044381,1751,2.1375
2066,1782079238.8016863,1.044428,1759,2.1472
2067,1782079238.8017187,1.044461,1757,2.1448
2068,1782079238.8017635,1.044506,1757,2.1448
2069,1782079238.8017962,1.044538,1754,2.1411
2070,1782079238.8025012,1.045243,1757,2.1448
2071,1782079238.8025758,1.045318,1758,2.1460
2072,1782079238.8026147,1.045357,1761,2.1497
2073,1782079238.8027222,1.045464,1759,2.1472
2074,1782079238.8027723,1.045514,1748,2.1338
2075,1782079238.8028092,1.045551,1735,2.1179
2076,1782079238.8035436,1.046286,1710,2.0874
2077,1782079238.8035853,1.046327,1686,2.0581
2078,1782079238.8036551,1.046397,1654,2.0190
2079,1782079238.8037126,1.046455,1624,1.9824
2080,1782079238.8037472,1.046489,1597,1.9495
2081,1782079238.8037975,1.046540,1556,1.8994
2082,1782079238.8038263,1.046568,1533,1.8713
2083,1782079238.803851,1.046593,1498,1.8286
2084,1782079238.8038754,1.046618,1478,1.8042
2085,1782079238.8039386,1.046681,1448,1.7676
2086,1782079238.8039706,1.046713,1434,1.7505
2087,1782079238.805404,1.048146,1417,1.7297
2088,1782079238.8055916,1.048334,1414,1.7261
2089,1782079238.8056726,1.048415,1400,1.7090
2090,1782079238.8101127,1.052855,1397,1.7053
2091,1782079238.8101995,1.052942,1389,1.6956
2092,1782079238.8102438,1.052986,1384,1.6895
2093,1782079238.810306,1.053048,1378,1.6821
2094,1782079238.8103654,1.053108,1376,1.6797
2095,1782079238.8104076,1.053150,1372,1.6748
2096,1782079238.810441,1.053183,1381,1.6858
2097,1782079238.810473,1.053215,1388,1.6943
2098,1782079238.8105159,1.053258,1397,1.7053
2099,1782079238.8105497,1.053292,1414,1.7261
2100,1782079238.8106093,1.053351,1428,1.7432
2101,1782079238.8106456,1.053388,1440,1.7578
2102,1782079238.8106961,1.053438,1453,1.7737
2103,1782079238.8122132,1.054955,1469,1.7932
2104,1782079238.812356,1.055098,1470,1.7944
2105,1782079238.8124895,1.055232,1476,1.8018
2106,1782079238.8157673,1.058509,1491,1.8201
2107,1782079238.815848,1.058590,1497,1.8274
2108,1782079238.8158882,1.058630,1509,1.8420
2109,1782079238.815943,1.058685,1524,1.8604
2110,1782079238.8159769,1.058719,1541,1.8811
2111,1782079238.8160162,1.058758,1560,1.9043
2112,1782079238.8160496,1.058792,1583,1.9324
2113,1782079238.81625,1.058992,1600,1.9531
2114,1782079238.8167615,1.059504,1621,1.9788
2115,1782079238.817608,1.060350,1629,1.9885
2116,1782079238.8177106,1.060453,1643,2.0056
2117,1782079238.8182702,1.061012,1661,2.0276
2118,1782079238.8187697,1.061512,1673,2.0422
2119,1782079238.8192294,1.061971,1687,2.0593
2120,1782079238.8197563,1.062498,1703,2.0789
2121,1782079238.8202167,1.062959,1720,2.0996
2122,1782079238.8207078,1.063450,1735,2.1179
2123,1782079238.8211744,1.063916,1752,2.1387
2124,1782079238.8216903,1.064432,1766,2.1558
2125,1782079238.8221793,1.064921,1777,2.1692
2126,1782079238.822636,1.065378,1789,2.1838
2127,1782079238.823209,1.065951,1805,2.2034
2128,1782079238.82371,1.066452,1810,2.2095
2129,1782079238.8242147,1.066957,1820,2.2217
2130,1782079238.824709,1.067451,1825,2.2278
2131,1782079238.8252132,1.067955,1827,2.2302
2132,1782079238.826143,1.068885,1830,2.2339
2133,1782079238.8261993,1.068941,1825,2.2278
2134,1782079238.8267233,1.069465,1818,2.2192
2135,1782079238.8272116,1.069954,1812,2.2119
2136,1782079238.8355887,1.078331,1807,2.2058
2137,1782079238.8369448,1.079687,1794,2.1899
2138,1782079238.8369994,1.079741,1787,2.1814
2139,1782079238.837028,1.079770,1766,2.1558
2140,1782079238.8376358,1.080378,1751,2.1375
2141,1782079238.8376691,1.080411,1737,2.1204
2142,1782079238.837688,1.080430,1722,2.1021
2143,1782079238.8377492,1.080491,1716,2.0947
2144,1782079238.8386135,1.081356,1696,2.0703
2145,1782079238.8386893,1.081431,1690,2.0630
2146,1782079238.8387263,1.081468,1683,2.0544
2147,1782079238.8392253,1.081967,1684,2.0557
2148,1782079238.839253,1.081995,1682,2.0532
2149,1782079238.8396711,1.082413,1684,2.0557
2150,1782079238.8396952,1.082437,1694,2.0679
2151,1782079238.8397381,1.082480,1689,2.0618
2152,1782079238.8402464,1.082989,1698,2.0728
2153,1782079238.8429284,1.085670,1704,2.0801
2154,1782079238.8429701,1.085712,1706,2.0825
2155,1782079238.8430085,1.085751,1711,2.0886
2156,1782079238.8430512,1.085793,1710,2.0874
2157,1782079238.8430858,1.085828,1709,2.0862
2158,1782079238.843125,1.085867,1701,2.0764
2159,1782079238.8431594,1.085901,1696,2.0703
2160,1782079238.8432379,1.085980,1694,2.0679
2161,1782079238.8432772,1.086019,1686,2.0581
2162,1782079238.84331,1.086052,1691,2.0642
2163,1782079238.8433487,1.086091,1684,2.0557
2164,1782079238.8433828,1.086125,1687,2.0593
2165,1782079238.8434334,1.086175,1680,2.0508
2166,1782079238.846429,1.089171,1682,2.0532
2167,1782079238.8465064,1.089248,1680,2.0508
2168,1782079238.8465395,1.089282,1678,2.0483
2169,1782079238.8465674,1.089309,1678,2.0483
2170,1782079238.8465939,1.089336,1683,2.0544
2171,1782079238.846619,1.089361,1680,2.0508
2172,1782079238.8466852,1.089427,1669,2.0374
2173,1782079238.84686,1.089602,1664,2.0312
2174,1782079238.8469074,1.089649,1650,2.0142
2175,1782079238.8477592,1.090501,1629,1.9885
2176,1782079238.848112,1.090854,1607,1.9617
2177,1782079238.848796,1.091538,1581,1.9299
2178,1782079238.848868,1.091610,1560,1.9043
2179,1782079238.8493514,1.092093,1536,1.8750
2180,1782079238.8499393,1.092681,1514,1.8481
2181,1782079238.8504145,1.093157,1489,1.8176
2182,1782079238.8509831,1.093725,1469,1.7932
2183,1782079238.8514657,1.094208,1443,1.7615
2184,1782079238.854408,1.097150,1423,1.7371
2185,1782079238.8544822,1.097224,1407,1.7175
2186,1782079238.8545127,1.097255,1384,1.6895
2187,1782079238.8545542,1.097296,1364,1.6650
2188,1782079238.8545945,1.097337,1343,1.6394
2189,1782079238.854624,1.097366,1336,1.6309
2190,1782079238.8548088,1.097551,1318,1.6089
2191,1782079238.8557594,1.098501,1303,1.5906
2192,1782079238.8573804,1.100122,1293,1.5784
2193,1782079238.8574538,1.100196,1272,1.5527
2194,1782079238.8574996,1.100242,1270,1.5503
2195,1782079238.8575404,1.100282,1257,1.5344
2196,1782079238.8578038,1.100546,1251,1.5271
2197,1782079238.8585484,1.101290,1250,1.5259
2198,1782079238.8588061,1.101548,1260,1.5381
2199,1782079238.8593261,1.102068,1272,1.5527
2200,1782079238.8598673,1.102609,1290,1.5747
2201,1782079238.8603873,1.103129,1320,1.6113
2202,1782079238.860873,1.103615,1350,1.6479
2203,1782079238.8613963,1.104138,1382,1.6870
2204,1782079238.861883,1.104625,1420,1.7334
2205,1782079238.8623877,1.105130,1457,1.7786
2206,1782079238.862762,1.105504,1488,1.8164
2207,1782079238.863306,1.106048,1520,1.8555
2208,1782079238.863929,1.106671,1553,1.8958
2209,1782079238.8643835,1.107126,1579,1.9275
2210,1782079238.8648376,1.107580,1607,1.9617
2211,1782079238.8653843,1.108126,1631,1.9910
2212,1782079238.8658304,1.108572,1656,2.0215
2213,1782079238.8668804,1.109622,1670,2.0386
2214,1782079238.8669505,1.109693,1694,2.0679
2215,1782079238.867284,1.110026,1710,2.0874
2216,1782079238.8677914,1.110533,1730,2.1118
2217,1782079238.868278,1.111020,1749,2.1350
2218,1782079238.8691468,1.111889,1760,2.1484
2219,1782079238.8766003,1.119342,1772,2.1631
2220,1782079238.8766413,1.119383,1779,2.1716
2221,1782079238.877889,1.120631,1786,2.1802
2222,1782079238.8779173,1.120659,1790,2.1851
2223,1782079238.8779356,1.120678,1791,2.1863
2224,1782079238.878575,1.121317,1788,2.1826
2225,1782079238.878607,1.121349,1783,2.1765
2226,1782079238.8786316,1.121374,1776,2.1680
2227,1782079238.8795123,1.122254,1773,2.1643
2228,1782079238.8795924,1.122334,1769,2.1594
2229,1782079238.8796694,1.122411,1770,2.1606
2230,1782079238.8797092,1.122451,1771,2.1619
2231,1782079238.8810706,1.123813,1772,2.1631
2232,1782079238.8848426,1.127585,1772,2.1631
2233,1782079238.8849216,1.127664,1778,2.1704
2234,1782079238.8849611,1.127703,1778,2.1704
2235,1782079238.8850102,1.127752,1784,2.1777
2236,1782079238.8850696,1.127812,1788,2.1826
2237,1782079238.885107,1.127849,1793,2.1887
2238,1782079238.8851461,1.127888,1804,2.2021
2239,1782079238.8851776,1.127920,1799,2.1960
2240,1782079238.8852193,1.127961,1795,2.1912
2241,1782079238.887996,1.130738,1795,2.1912
2242,1782079238.8881102,1.130852,1788,2.1826
2243,1782079238.888544,1.131286,1780,2.1729
2244,1782079238.8885987,1.131341,1776,2.1680
2245,1782079238.888633,1.131375,1770,2.1606
2246,1782079238.8886666,1.131409,1763,2.1521
2247,1782079238.8886921,1.131434,1755,2.1423
2248,1782079238.888723,1.131465,1750,2.1362
2249,1782079238.8887546,1.131497,1741,2.1252
2250,1782079238.8891861,1.131928,1729,2.1106
2251,1782079238.8892426,1.131985,1722,2.1021
2252,1782079238.8892736,1.132016,1712,2.0898
2253,1782079238.889315,1.132057,1694,2.0679
2254,1782079238.8893526,1.132095,1681,2.0520
2255,1782079238.889386,1.132128,1661,2.0276
2256,1782079238.8894117,1.132154,1641,2.0032
2257,1782079238.8898544,1.132596,1612,1.9678
2258,1782079238.8899338,1.132676,1590,1.9409
2259,1782079238.8899717,1.132714,1565,1.9104
2260,1782079238.8900044,1.132746,1544,1.8848
2261,1782079238.8904727,1.133215,1526,1.8628
2262,1782079238.8910115,1.133754,1514,1.8481
2263,1782079238.8914652,1.134207,1503,1.8347
2264,1782079238.8934622,1.136204,1494,1.8237
2265,1782079238.8945935,1.137336,1485,1.8127
2266,1782079238.8946648,1.137407,1476,1.8018
2267,1782079238.8946948,1.137437,1465,1.7883
2268,1782079238.894725,1.137467,1452,1.7725
2269,1782079238.89475,1.137492,1441,1.7590
2270,1782079238.8949087,1.137651,1433,1.7493
2271,1782079238.8958335,1.138576,1416,1.7285
2272,1782079238.8959057,1.138648,1411,1.7224
2273,1782079238.8989024,1.141644,1405,1.7151
2274,1782079238.898997,1.141739,1403,1.7126
2275,1782079238.8990684,1.141810,1408,1.7188
2276,1782079238.8991027,1.141845,1421,1.7346
2277,1782079238.8991616,1.141904,1440,1.7578
2278,1782079238.8991935,1.141936,1458,1.7798
2279,1782079238.8993943,1.142136,1484,1.8115
2280,1782079238.899893,1.142635,1503,1.8347
2281,1782079238.9011042,1.143846,1524,1.8604
2282,1782079238.901243,1.143985,1537,1.8762
2283,1782079238.9013724,1.144114,1549,1.8909
2284,1782079238.9020169,1.144759,1565,1.9104
2285,1782079238.9025,1.145242,1574,1.9214
2286,1782079238.9029646,1.145707,1584,1.9336
2287,1782079238.9034863,1.146228,1580,1.9287
2288,1782079238.9039233,1.146665,1577,1.9250
2289,1782079238.9044886,1.147231,1569,1.9153
2290,1782079238.9049578,1.147700,1567,1.9128
2291,1782079238.9054732,1.148215,1560,1.9043
2292,1782079238.9059722,1.148714,1561,1.9055
2293,1782079238.906437,1.149179,1555,1.8982
2294,1782079238.9069936,1.149736,1552,1.8945
2295,1782079238.9074864,1.150229,1560,1.9043
2296,1782079238.9079885,1.150731,1555,1.8982
2297,1782079238.9089396,1.151682,1552,1.8945
2298,1782079238.9090052,1.151747,1547,1.8884
2299,1782079238.9094913,1.152233,1540,1.8799
2300,1782079238.909931,1.152673,1538,1.8774
2301,1782079238.9127312,1.155473,1537,1.8762
2302,1782079238.9128823,1.155624,1532,1.8701
2303,1782079238.9129455,1.155688,1534,1.8726
2304,1782079238.914785,1.157527,1538,1.8774
2305,1782079238.920948,1.163690,1555,1.8982
2306,1782079238.9210138,1.163756,1565,1.9104
2307,1782079238.9232907,1.166033,1581,1.9299
2308,1782079238.9233303,1.166072,1594,1.9458
2309,1782079238.9233613,1.166103,1614,1.9702
2310,1782079238.923388,1.166130,1630,1.9897
2311,1782079238.9239533,1.166695,1641,2.0032
2312,1782079238.9239795,1.166722,1661,2.0276
2313,1782079238.9244816,1.167224,1679,2.0496
2314,1782079238.9245102,1.167252,1701,2.0764
2315,1782079238.9245303,1.167272,1722,2.1021
2316,1782079238.9250252,1.167767,1742,2.1265
2317,1782079238.9250498,1.167792,1765,2.1545
2318,1782079238.925528,1.168270,1788,2.1826
2319,1782079238.9255552,1.168297,1821,2.2229
2320,1782079238.925575,1.168317,1850,2.2583
2321,1782079238.9260397,1.168782,1878,2.2925
2322,1782079238.9260654,1.168808,1905,2.3254
2323,1782079238.9260864,1.168828,1935,2.3621
2324,1782079238.9275415,1.170284,1944,2.3730
2325,1782079238.9287648,1.171507,1961,2.3938
2326,1782079238.9287908,1.171533,1967,2.4011
2327,1782079238.928832,1.171574,1970,2.4048
2328,1782079238.928889,1.171631,1970,2.4048
2329,1782079238.9289124,1.171654,1969,2.4036
2330,1782079238.9289398,1.171682,1958,2.3901
2331,1782079238.9289846,1.171727,1946,2.3755
2332,1782079238.9290106,1.171753,1925,2.3499
2333,1782079238.929083,1.171825,1899,2.3181
2334,1782079238.9291165,1.171859,1871,2.2839
2335,1782079238.9291387,1.171881,1845,2.2522
2336,1782079238.929168,1.171910,1816,2.2168
2337,1782079238.9291923,1.171934,1787,2.1814
2338,1782079238.929242,1.171984,1767,2.1570
2339,1782079238.9294364,1.172179,1735,2.1179
2340,1782079238.9304268,1.173169,1711,2.0886
2341,1782079238.9305723,1.173314,1687,2.0593
2342,1782079238.9336715,1.176414,1663,2.0300
2343,1782079238.9345055,1.177248,1639,2.0007
2344,1782079238.9345813,1.177323,1613,1.9690
2345,1782079238.9346118,1.177354,1592,1.9434
2346,1782079238.9346566,1.177399,1566,1.9116
2347,1782079238.9352126,1.177955,1549,1.8909
2348,1782079238.9352844,1.178026,1524,1.8604
2349,1782079238.9353166,1.178059,1507,1.8396
2350,1782079238.9359143,1.178656,1497,1.8274
2351,1782079238.935983,1.178725,1491,1.8201
2352,1782079238.9360142,1.178756,1483,1.8103
2353,1782079238.9364924,1.179235,1485,1.8127
2354,1782079238.9369907,1.179733,1493,1.8225
2355,1782079238.9374812,1.180223,1507,1.8396
2356,1782079238.9384902,1.181232,1524,1.8604
2357,1782079238.9385538,1.181296,1543,1.8835
2358,1782079238.9412005,1.183943,1562,1.9067
2359,1782079238.9451356,1.187878,1591,1.9421
2360,1782079238.945181,1.187923,1614,1.9702
2361,1782079238.9452157,1.187958,1650,2.0142
2362,1782079238.9460516,1.188794,1668,2.0361
2363,1782079238.94614,1.188882,1695,2.0691
2364,1782079238.9461792,1.188921,1723,2.1033
2365,1782079238.9462168,1.188959,1755,2.1423
2366,1782079238.9462433,1.188985,1786,2.1802
2367,1782079238.9462698,1.189012,1815,2.2156
2368,1782079238.9462962,1.189038,1851,2.2595
2369,1782079238.9463224,1.189065,1879,2.2937
2370,1782079238.9463482,1.189090,1910,2.3315
2371,1782079238.9463737,1.189116,1934,2.3608
2372,1782079238.9463983,1.189140,1961,2.3938
2373,1782079238.9464827,1.189225,1967,2.4011
2374,1782079238.946928,1.189670,1979,2.4158
2375,1782079238.9474988,1.190241,1976,2.4121
2376,1782079238.948031,1.190773,1982,2.4194
2377,1782079238.9485803,1.191322,1972,2.4072
2378,1782079238.9489677,1.191710,1972,2.4072
2379,1782079238.949506,1.192248,1956,2.3877
2380,1782079238.9499476,1.192690,1949,2.3792
2381,1782079238.950506,1.193248,1935,2.3621
2382,1782079238.9509327,1.193675,1929,2.3547
2383,1782079238.951489,1.194231,1913,2.3352
2384,1782079238.9519823,1.194724,1911,2.3328
2385,1782079238.9524877,1.195230,1906,2.3267
2386,1782079238.9529796,1.195722,1903,2.3230
2387,1782079238.9535356,1.196278,1893,2.3108
2388,1782079238.9539847,1.196727,1885,2.3010
2389,1782079238.954491,1.197233,1877,2.2913
2390,1782079238.9551806,1.197923,1855,2.2644
2391,1782079238.9554782,1.198220,1833,2.2375
2392,1782079238.95599,1.198732,1807,2.2058
2393,1782079238.956474,1.199216,1774,2.1655
2394,1782079238.957517,1.200259,1745,2.1301
2395,1782079238.9648032,1.207545,1713,2.0911
2396,1782079238.9671006,1.209843,1686,2.0581
2397,1782079238.9682648,1.211007,1651,2.0154
2398,1782079238.9683075,1.211050,1630,1.9897
2399,1782079238.968342,1.211084,1602,1.9556
2400,1782079238.9689164,1.211658,1585,1.9348
2401,1782079238.9689748,1.211717,1573,1.9202
2402,1782079238.969013,1.211755,1569,1.9153
2403,1782079238.9690452,1.211787,1564,1.9092
2404,1782079238.9695625,1.212305,1570,1.9165
2405,1782079238.9695964,1.212338,1567,1.9128
2406,1782079238.9696276,1.212370,1577,1.9250
2407,1782079238.9696643,1.212406,1581,1.9299
2408,1782079238.969695,1.212437,1590,1.9409
2409,1782079238.9701996,1.212942,1597,1.9495
2410,1782079238.9702406,1.212983,1606,1.9604
2411,1782079238.9707456,1.213488,1611,1.9666
2412,1782079238.970787,1.213529,1619,1.9763
2413,1782079238.970819,1.213561,1623,1.9812
2414,1782079238.97131,1.214052,1633,1.9934
2415,1782079238.971345,1.214087,1635,1.9958
2416,1782079238.9713774,1.214119,1652,2.0166
2417,1782079238.9741066,1.216849,1663,2.0300
2418,1782079238.9741435,1.216886,1680,2.0508
2419,1782079238.974187,1.216929,1691,2.0642
2420,1782079238.974218,1.216960,1710,2.0874
2421,1782079238.9742436,1.216986,1722,2.1021
2422,1782079238.9742782,1.217020,1746,2.1313
2423,1782079238.9743109,1.217053,1762,2.1509
2424,1782079238.9743369,1.217079,1790,2.1851
2425,1782079238.974375,1.217117,1804,2.2021
2426,1782079238.9744627,1.217205,1828,2.2314
2427,1782079238.9745102,1.217252,1841,2.2473
2428,1782079238.9745405,1.217283,1859,2.2693
2429,1782079238.9745665,1.217309,1865,2.2766
2430,1782079238.976602,1.219344,1878,2.2925
2431,1782079238.976677,1.219419,1880,2.2949
2432,1782079238.9775364,1.220279,1892,2.3096
2433,1782079238.977577,1.220319,1892,2.3096
2434,1782079238.9776325,1.220375,1898,2.3169
2435,1782079238.977685,1.220427,1892,2.3096
2436,1782079238.9784136,1.221156,1893,2.3108
2437,1782079238.97855,1.221292,1887,2.3035
2438,1782079238.9793823,1.222124,1869,2.2815
2439,1782079238.9795442,1.222286,1852,2.2607
2440,1782079238.980733,1.223475,1830,2.2339
2441,1782079238.9809458,1.223688,1803,2.2009
2442,1782079238.9809864,1.223728,1773,2.1643
2443,1782079238.9825544,1.225296,1732,2.1143
2444,1782079238.982648,1.225390,1697,2.0715
2445,1782079238.9826841,1.225426,1660,2.0264
2446,1782079238.983502,1.226244,1633,1.9934
2447,1782079238.983567,1.226309,1602,1.9556
2448,1782079238.9843297,1.227072,1582,1.9312
2449,1782079238.9852104,1.227952,1552,1.8945
2450,1782079238.985289,1.228031,1540,1.8799
2451,1782079238.9897573,1.232499,1519,1.8542
2452,1782079238.9898353,1.232577,1497,1.8274
2453,1782079238.9898953,1.232637,1492,1.8213
2454,1782079238.9899297,1.232672,1483,1.8103
2455,1782079238.9899597,1.232702,1480,1.8066
2456,1782079238.989986,1.232728,1474,1.7993
2457,1782079238.9900265,1.232769,1469,1.7932
2458,1782079238.9900568,1.232799,1470,1.7944
2459,1782079238.990114,1.232856,1462,1.7847
2460,1782079238.9901493,1.232891,1465,1.7883
2461,1782079238.991639,1.234381,1460,1.7822
2462,1782079238.994592,1.237334,1456,1.7773
2463,1782079238.9948921,1.237634,1450,1.7700
2464,1782079238.9949777,1.237720,1444,1.7627
2465,1782079238.9951212,1.237863,1439,1.7566
2466,1782079238.9951572,1.237899,1436,1.7529
2467,1782079238.9952116,1.237954,1434,1.7505
2468,1782079238.9952471,1.237989,1426,1.7407
2469,1782079238.9953048,1.238047,1424,1.7383
2470,1782079238.9953418,1.238084,1424,1.7383
2471,1782079238.9955359,1.238278,1422,1.7358
2472,1782079238.9960282,1.238770,1423,1.7371
2473,1782079238.9969583,1.239700,1413,1.7249
2474,1782079238.9971006,1.239843,1411,1.7224
2475,1782079238.9975622,1.240304,1407,1.7175
2476,1782079238.9984286,1.241171,1407,1.7175
2477,1782079238.998549,1.241291,1404,1.7139
2478,1782079238.9990582,1.241800,1407,1.7175
2479,1782079238.9995172,1.242259,1409,1.7200
2480,1782079239.0000734,1.242815,1418,1.7310
2481,1782079239.0005147,1.243257,1438,1.7554
2482,1782079239.0010633,1.243805,1448,1.7676
2483,1782079239.0015802,1.244322,1466,1.7896
2484,1782079239.0020368,1.244779,1486,1.8140
2485,1782079239.0025675,1.245310,1500,1.8311
2486,1782079239.0030365,1.245779,1518,1.8530
2487,1782079239.0035443,1.246286,1541,1.8811
2488,1782079239.0040786,1.246821,1560,1.9043
2489,1782079239.0045602,1.247302,1581,1.9299
2490,1782079239.0050707,1.247813,1601,1.9543
2491,1782079239.005543,1.248285,1617,1.9739
2492,1782079239.0060768,1.248819,1627,1.9861
2493,1782079239.0065458,1.249288,1645,2.0081
2494,1782079239.0070875,1.249830,1643,2.0056
2495,1782079239.0076005,1.250343,1653,2.0178
2496,1782079239.008061,1.250803,1655,2.0203
2497,1782079239.0085554,1.251297,1647,2.0105
2498,1782079239.009627,1.252369,1637,1.9983
2499,1782079239.0097,1.252442,1627,1.9861
2500,1782079239.0100834,1.252825,1613,1.9690
2501,1782079239.0105765,1.253319,1590,1.9409
2502,1782079239.0148764,1.257618,1572,1.9189
2503,1782079239.0204616,1.263204,1551,1.8933
2504,1782079239.0205052,1.263247,1533,1.8713
2505,1782079239.020961,1.263703,1524,1.8604
2506,1782079239.0209982,1.263740,1513,1.8469
2507,1782079239.0214028,1.264145,1513,1.8469
2508,1782079239.0214357,1.264178,1506,1.8384
2509,1782079239.0218368,1.264579,1504,1.8359
2510,1782079239.0218687,1.264611,1507,1.8396
2511,1782079239.0222828,1.265025,1505,1.8372
2512,1782079239.0223145,1.265057,1506,1.8384
2513,1782079239.0227036,1.265446,1501,1.8323
2514,1782079239.0227346,1.265477,1508,1.8408
2515,1782079239.026179,1.268921,1515,1.8494
2516,1782079239.0262735,1.269016,1515,1.8494
2517,1782079239.026309,1.269051,1527,1.8640
2518,1782079239.0263526,1.269095,1533,1.8713
2519,1782079239.0263844,1.269126,1548,1.8896
2520,1782079239.026428,1.269170,1557,1.9006
2521,1782079239.0264711,1.269213,1571,1.9177
2522,1782079239.026498,1.269240,1583,1.9324
2523,1782079239.0265255,1.269268,1595,1.9470
2524,1782079239.0265508,1.269293,1603,1.9568
2525,1782079239.026609,1.269351,1613,1.9690
2526,1782079239.0266376,1.269380,1621,1.9788
2527,1782079239.0266795,1.269422,1633,1.9934
2528,1782079239.026708,1.269450,1638,1.9995
2529,1782079239.0267322,1.269474,1639,2.0007
2530,1782079239.0306976,1.273440,1641,2.0032
2531,1782079239.030839,1.273581,1644,2.0068
2532,1782079239.030986,1.273728,1643,2.0056
2533,1782079239.0311873,1.273929,1643,2.0056
2534,1782079239.031967,1.274709,1647,2.0105
2535,1782079239.0320208,1.274763,1643,2.0056
2536,1782079239.0320988,1.274841,1649,2.0129
2537,1782079239.032139,1.274881,1653,2.0178
2538,1782079239.032173,1.274915,1661,2.0276
2539,1782079239.0327053,1.275447,1676,2.0459
2540,1782079239.0327356,1.275478,1676,2.0459
2541,1782079239.0327692,1.275511,1683,2.0544
2542,1782079239.032797,1.275539,1693,2.0667
2543,1782079239.0328403,1.275582,1704,2.0801
2544,1782079239.032869,1.275611,1714,2.0923
2545,1782079239.0329025,1.275645,1716,2.0947
2546,1782079239.0333586,1.276101,1728,2.1094
2547,1782079239.0338438,1.276586,1738,2.1216
2548,1782079239.034328,1.277070,1753,2.1399
2549,1782079239.0348203,1.277562,1754,2.1411
2550,1782079239.035302,1.278044,1764,2.1533
2551,1782079239.037969,1.280711,1767,2.1570
2552,1782079239.0380201,1.280762,1772,2.1631
2553,1782079239.0380485,1.280791,1778,2.1704
2554,1782079239.0381029,1.280845,1778,2.1704
2555,1782079239.0381296,1.280872,1773,2.1643
2556,1782079239.0381696,1.280912,1767,2.1570
2557,1782079239.0396779,1.282420,1763,2.1521
2558,1782079239.0398076,1.282550,1763,2.1521
2559,1782079239.0418596,1.284602,1756,2.1436
2560,1782079239.041915,1.284657,1751,2.1375
2561,1782079239.0419593,1.284701,1748,2.1338
2562,1782079239.0420125,1.284755,1747,2.1326
2563,1782079239.0420566,1.284799,1738,2.1216
2564,1782079239.0420895,1.284832,1732,2.1143
2565,1782079239.0426426,1.285385,1721,2.1008
2566,1782079239.043333,1.286075,1713,2.0911
2567,1782079239.043649,1.286391,1702,2.0776
2568,1782079239.0441458,1.286888,1684,2.0557
2569,1782079239.0446424,1.287385,1675,2.0447
2570,1782079239.045168,1.287910,1658,2.0239
2571,1782079239.0456116,1.288354,1649,2.0129
2572,1782079239.0461948,1.288937,1630,1.9897
2573,1782079239.0466304,1.289372,1625,1.9836
2574,1782079239.0471973,1.289939,1617,1.9739
2575,1782079239.047647,1.290389,1617,1.9739
2576,1782079239.0481997,1.290942,1606,1.9604
2577,1782079239.0486946,1.291437,1607,1.9617
2578,1782079239.0491688,1.291911,1606,1.9604
2579,1782079239.0496614,1.292403,1608,1.9629
2580,1782079239.050164,1.292906,1607,1.9617
2581,1782079239.0506682,1.293410,1613,1.9690
2582,1782079239.051137,1.293879,1613,1.9690
2583,1782079239.0516543,1.294396,1623,1.9812
2584,1782079239.0521507,1.294893,1625,1.9836
2585,1782079239.0526805,1.295423,1633,1.9934
2586,1782079239.0531592,1.295901,1640,2.0020
2587,1782079239.0536897,1.296432,1642,2.0044
2588,1782079239.054823,1.297565,1654,2.0190
2589,1782079239.0548801,1.297622,1653,2.0178
2590,1782079239.0551748,1.297917,1668,2.0361
2591,1782079239.0556722,1.298414,1668,2.0361
2592,1782079239.0561674,1.298909,1678,2.0483
2593,1782079239.056677,1.299419,1678,2.0483
2594,1782079239.0571845,1.299927,1686,2.0581
2595,1782079239.0583022,1.301044,1697,2.0715
2596,1782079239.0626094,1.305351,1702,2.0776
2597,1782079239.0709755,1.313718,1709,2.0862
2598,1782079239.0710528,1.313795,1712,2.0898
2599,1782079239.07281,1.315552,1723,2.1033
2600,1782079239.0728793,1.315621,1717,2.0959
2601,1782079239.072926,1.315668,1708,2.0850
2602,1782079239.0737822,1.316524,1701,2.0764
2603,1782079239.0745182,1.317260,1697,2.0715
2604,1782079239.0745635,1.317306,1688,2.0605
2605,1782079239.0752895,1.318032,1674,2.0435
2606,1782079239.0753343,1.318076,1662,2.0288
2607,1782079239.076052,1.318794,1654,2.0190
2608,1782079239.0760958,1.318838,1648,2.0117
2609,1782079239.0767946,1.319537,1635,1.9958
2610,1782079239.0768418,1.319584,1626,1.9849
2611,1782079239.0768838,1.319626,1623,1.9812
2612,1782079239.0822937,1.325036,1607,1.9617
2613,1782079239.0823827,1.325125,1600,1.9531
2614,1782079239.0824242,1.325166,1593,1.9446
2615,1782079239.082485,1.325227,1581,1.9299
2616,1782079239.0825262,1.325268,1573,1.9202
2617,1782079239.082586,1.325328,1556,1.8994
2618,1782079239.0826225,1.325365,1538,1.8774
2619,1782079239.0826843,1.325426,1525,1.8616
2620,1782079239.082733,1.325475,1508,1.8408
2621,1782079239.082767,1.325509,1498,1.8286
2622,1782079239.0828001,1.325542,1481,1.8079
2623,1782079239.0828564,1.325598,1465,1.7883
2624,1782079239.0829165,1.325659,1451,1.7712
2625,1782079239.0829546,1.325697,1429,1.7444
2626,1782079239.0863228,1.329065,1419,1.7322
2627,1782079239.086393,1.329135,1404,1.7139
2628,1782079239.0864258,1.329168,1391,1.6980
2629,1782079239.0864913,1.329233,1387,1.6931
2630,1782079239.0865285,1.329271,1381,1.6858
2631,1782079239.0874164,1.330158,1369,1.6711
2632,1782079239.0874982,1.330240,1364,1.6650
2633,1782079239.0875597,1.330302,1362,1.6626
2634,1782079239.0875955,1.330338,1349,1.6467
2635,1782079239.087647,1.330389,1347,1.6443
2636,1782079239.0876958,1.330438,1339,1.6345
2637,1782079239.0883217,1.331064,1338,1.6333
2638,1782079239.088364,1.331106,1335,1.6296
2639,1782079239.0884144,1.331156,1335,1.6296
2640,1782079239.0884497,1.331192,1338,1.6333
2641,1782079239.0884993,1.331241,1342,1.6382
2642,1782079239.0885332,1.331275,1346,1.6431
2643,1782079239.088573,1.331315,1353,1.6516
2644,1782079239.088604,1.331346,1366,1.6675
2645,1782079239.0886383,1.331380,1379,1.6833
2646,1782079239.08923,1.331972,1394,1.7017
2647,1782079239.0892682,1.332010,1412,1.7236
2648,1782079239.0893552,1.332097,1428,1.7432
2649,1782079239.0893893,1.332131,1439,1.7566
2650,1782079239.0894408,1.332183,1449,1.7688
2651,1782079239.0894752,1.332217,1462,1.7847
2652,1782079239.0895152,1.332257,1471,1.7957
2653,1782079239.089548,1.332290,1477,1.8030
2654,1782079239.0900617,1.332804,1488,1.8164
2655,1782079239.0901005,1.332843,1492,1.8213
2656,1782079239.0901482,1.332890,1507,1.8396
2657,1782079239.09018,1.332922,1517,1.8518
2658,1782079239.0902157,1.332958,1527,1.8640
2659,1782079239.0902524,1.332994,1532,1.8701
2660,1782079239.0902822,1.333024,1535,1.8738
2661,1782079239.0907314,1.333473,1541,1.8811
2662,1782079239.0912433,1.333985,1551,1.8933
2663,1782079239.0918086,1.334551,1546,1.8872
2664,1782079239.0923278,1.335070,1552,1.8945
2665,1782079239.0927193,1.335461,1549,1.8909
2666,1782079239.0953472,1.338089,1548,1.8896
2667,1782079239.0953858,1.338128,1533,1.8713
2668,1782079239.0955286,1.338271,1528,1.8652
2669,1782079239.0956225,1.338365,1512,1.8457
2670,1782079239.0957887,1.338531,1507,1.8396
2671,1782079239.095858,1.338600,1496,1.8262
2672,1782079239.0973175,1.340060,1491,1.8201
2673,1782079239.1018236,1.344566,1487,1.8152
2674,1782079239.1019216,1.344664,1480,1.8066
2675,1782079239.1019504,1.344692,1473,1.7981
2676,1782079239.102002,1.344744,1473,1.7981
2677,1782079239.1020467,1.344789,1472,1.7969
2678,1782079239.1020768,1.344819,1468,1.7920
2679,1782079239.1021307,1.344873,1468,1.7920
2680,1782079239.1021752,1.344917,1458,1.7798
2681,1782079239.102204,1.344946,1452,1.7725
2682,1782079239.102255,1.344997,1439,1.7566
2683,1782079239.1023536,1.345096,1430,1.7456
2684,1782079239.1025143,1.345256,1425,1.7395
2685,1782079239.102794,1.345536,1419,1.7322
2686,1782079239.1037936,1.346536,1415,1.7273
2687,1782079239.1038718,1.346614,1413,1.7249
2688,1782079239.1044388,1.347181,1413,1.7249
2689,1782079239.1047726,1.347515,1414,1.7261
2690,1782079239.1053324,1.348074,1421,1.7346
2691,1782079239.105816,1.348558,1426,1.7407
2692,1782079239.1063182,1.349060,1434,1.7505
2693,1782079239.106824,1.349566,1447,1.7664
2694,1782079239.1073377,1.350080,1451,1.7712
2695,1782079239.1077964,1.350538,1468,1.7920
2696,1782079239.1083274,1.351069,1471,1.7957
2697,1782079239.1088083,1.351550,1475,1.8005
2698,1782079239.1092863,1.352028,1482,1.8091
2699,1782079239.1097603,1.352502,1481,1.8079
2700,1782079239.1102371,1.352979,1488,1.8164
2701,1782079239.1107647,1.353507,1493,1.8225
2702,1782079239.1117237,1.354466,1497,1.8274
2703,1782079239.1117575,1.354500,1505,1.8372
2704,1782079239.1123421,1.355084,1503,1.8347
2705,1782079239.1127713,1.355513,1503,1.8347
