sample_index,timestamp_unix,elapsed_seconds,raw_value,voltage
0,1782079180.2337198,0.009069,1476,1.8018
1,1782079180.2338533,0.009203,1482,1.8091
2,1782079180.2339404,0.009290,1481,1.8079
3,1782079180.2339704,0.009320,1480,1.8066
4,1782079180.2340128,0.009362,1480,1.8066
5,1782079180.2340908,0.009440,1483,1.8103
6,1782079180.2341855,0.009535,1484,1.8115
7,1782079180.2342541,0.009604,1481,1.8079
8,1782079180.2343,0.009650,1483,1.8103
9,1782079180.2343554,0.009705,1483,1.8103
10,1782079180.2343912,0.009741,1481,1.8079
11,1782079180.2344494,0.009799,1477,1.8030
12,1782079180.2345057,0.009855,1474,1.7993
13,1782079180.2345402,0.009890,1477,1.8030
14,1782079180.2345738,0.009923,1474,1.7993
15,1782079180.2346559,0.010005,1478,1.8042
16,1782079180.2346916,0.010041,1470,1.7944
17,1782079180.2347338,0.010083,1473,1.7981
18,1782079180.2347755,0.010125,1465,1.7883
19,1782079180.2348115,0.010161,1462,1.7847
20,1782079180.2352,0.010550,1463,1.7859
21,1782079180.236162,0.011512,1458,1.7798
22,1782079180.2362776,0.011627,1455,1.7761
23,1782079180.2368264,0.012176,1457,1.7786
24,1782079180.237191,0.012541,1447,1.7664
25,1782079180.2377324,0.013082,1455,1.7761
26,1782079180.2382443,0.013594,1451,1.7712
27,1782079180.2387364,0.014086,1450,1.7700
28,1782079180.23923,0.014580,1445,1.7639
29,1782079180.2397327,0.015082,1451,1.7712
30,1782079180.2402442,0.015594,1451,1.7712
31,1782079180.2407253,0.016075,1450,1.7700
32,1782079180.2412167,0.016566,1451,1.7712
33,1782079180.241731,0.017081,1450,1.7700
34,1782079180.242231,0.017581,1455,1.7761
35,1782079180.2427225,0.018072,1453,1.7737
36,1782079180.243244,0.018594,1451,1.7712
37,1782079180.2437365,0.019086,1456,1.7773
38,1782079180.2442415,0.019591,1457,1.7786
39,1782079180.2449913,0.020341,1458,1.7798
40,1782079180.2452202,0.020570,1461,1.7834
41,1782079180.2457745,0.021124,1460,1.7822
42,1782079180.2462451,0.021595,1468,1.7920
43,1782079180.246724,0.022074,1468,1.7920
44,1782079180.2572443,0.032594,1470,1.7944
45,1782079180.2574143,0.032764,1468,1.7920
46,1782079180.2574537,0.032803,1474,1.7993
47,1782079180.257493,0.032843,1473,1.7981
48,1782079180.2575269,0.032876,1473,1.7981
49,1782079180.2583191,0.033669,1475,1.8005
50,1782079180.2622023,0.037552,1480,1.8066
51,1782079180.262332,0.037682,1484,1.8115
52,1782079180.2623725,0.037722,1483,1.8103
53,1782079180.2623985,0.037748,1481,1.8079
54,1782079180.2624218,0.037771,1483,1.8103
55,1782079180.2634442,0.038794,1482,1.8091
56,1782079180.263549,0.038899,1477,1.8030
57,1782079180.269137,0.044487,1479,1.8054
58,1782079180.2692792,0.044629,1474,1.7993
59,1782079180.2694545,0.044804,1476,1.8018
60,1782079180.2695854,0.044935,1477,1.8030
61,1782079180.2696962,0.045046,1473,1.7981
62,1782079180.2697446,0.045094,1467,1.7908
63,1782079180.2698474,0.045197,1470,1.7944
64,1782079180.269987,0.045337,1469,1.7932
65,1782079180.2700584,0.045408,1462,1.7847
66,1782079180.2700932,0.045443,1461,1.7834
67,1782079180.270243,0.045593,1456,1.7773
68,1782079180.2703657,0.045715,1457,1.7786
69,1782079180.2704341,0.045784,1451,1.7712
70,1782079180.2704809,0.045830,1453,1.7737
71,1782079180.2705402,0.045890,1444,1.7627
72,1782079180.2705722,0.045922,1449,1.7688
73,1782079180.2738333,0.049183,1451,1.7712
74,1782079180.273891,0.049241,1449,1.7688
75,1782079180.2739177,0.049267,1451,1.7712
76,1782079180.273946,0.049296,1450,1.7700
77,1782079180.2746224,0.049972,1454,1.7749
78,1782079180.274737,0.050086,1449,1.7688
79,1782079180.2747722,0.050122,1455,1.7761
80,1782079180.2747965,0.050146,1449,1.7688
81,1782079180.2748191,0.050169,1453,1.7737
82,1782079180.2748673,0.050217,1455,1.7761
83,1782079180.27544,0.050790,1454,1.7749
84,1782079180.2754939,0.050843,1452,1.7725
85,1782079180.2755232,0.050873,1449,1.7688
86,1782079180.2755685,0.050918,1453,1.7737
87,1782079180.2756078,0.050957,1450,1.7700
88,1782079180.275638,0.050988,1459,1.7810
89,1782079180.2756615,0.051011,1456,1.7773
90,1782079180.275743,0.051093,1452,1.7725
91,1782079180.275762,0.051112,1452,1.7725
92,1782079180.2757897,0.051139,1446,1.7651
93,1782079180.2758102,0.051160,1441,1.7590
94,1782079180.2764306,0.051780,1441,1.7590
95,1782079180.2765093,0.051859,1442,1.7603
96,1782079180.2765315,0.051881,1439,1.7566
97,1782079180.27656,0.051910,1440,1.7578
98,1782079180.2765834,0.051933,1440,1.7578
99,1782079180.2773428,0.052692,1434,1.7505
100,1782079180.2774336,0.052783,1439,1.7566
101,1782079180.2774575,0.052807,1435,1.7517
102,1782079180.2774875,0.052837,1438,1.7554
103,1782079180.2775338,0.052883,1436,1.7529
104,1782079180.2775724,0.052922,1434,1.7505
105,1782079180.2782936,0.053643,1432,1.7480
106,1782079180.278421,0.053771,1433,1.7493
107,1782079180.279583,0.054933,1432,1.7480
108,1782079180.2797697,0.055119,1427,1.7419
109,1782079180.279871,0.055221,1431,1.7468
110,1782079180.2808046,0.056154,1429,1.7444
111,1782079180.2809122,0.056262,1429,1.7444
112,1782079180.2816598,0.057009,1428,1.7432
113,1782079180.2817607,0.057110,1437,1.7542
114,1782079180.2836401,0.058990,1433,1.7493
115,1782079180.2837684,0.059118,1441,1.7590
116,1782079180.2857635,0.061113,1435,1.7517
117,1782079180.2858517,0.061201,1440,1.7578
118,1782079180.2858748,0.061224,1440,1.7578
119,1782079180.2859068,0.061256,1451,1.7712
120,1782079180.2859313,0.061281,1445,1.7639
121,1782079180.2859538,0.061303,1448,1.7676
122,1782079180.286254,0.061604,1449,1.7688
123,1782079180.288205,0.063555,1457,1.7786
124,1782079180.2882788,0.063628,1456,1.7773
125,1782079180.2883148,0.063664,1452,1.7725
126,1782079180.2883475,0.063697,1453,1.7737
127,1782079180.2887766,0.064126,1456,1.7773
128,1782079180.2897694,0.065119,1451,1.7712
129,1782079180.289824,0.065174,1452,1.7725
130,1782079180.290433,0.065783,1448,1.7676
131,1782079180.2907755,0.066125,1453,1.7737
132,1782079180.2913198,0.066669,1445,1.7639
133,1782079180.2918122,0.067162,1453,1.7737
134,1782079180.2923036,0.067653,1447,1.7664
135,1782079180.2928822,0.068232,1457,1.7786
136,1782079180.2933068,0.068656,1450,1.7700
137,1782079180.2937307,0.069080,1458,1.7798
138,1782079180.2942266,0.069576,1452,1.7725
139,1782079180.2948031,0.070153,1456,1.7773
140,1782079180.295321,0.070671,1454,1.7749
141,1782079180.2957945,0.071144,1455,1.7761
142,1782079180.2962375,0.071587,1453,1.7737
143,1782079180.296739,0.072089,1456,1.7773
144,1782079180.2972248,0.072574,1447,1.7664
145,1782079180.2977607,0.073110,1451,1.7712
146,1782079180.2983134,0.073663,1450,1.7700
147,1782079180.2987957,0.074145,1448,1.7676
148,1782079180.2993486,0.074698,1445,1.7639
149,1782079180.3000867,0.075436,1449,1.7688
150,1782079180.3002748,0.075624,1447,1.7664
151,1782079180.3008118,0.076161,1448,1.7676
152,1782079180.30127,0.076620,1446,1.7651
153,1782079180.3020155,0.077365,1448,1.7676
154,1782079180.3092442,0.084594,1445,1.7639
155,1782079180.3119054,0.087255,1447,1.7664
156,1782079180.311988,0.087338,1445,1.7639
157,1782079180.3120096,0.087359,1450,1.7700
158,1782079180.3120341,0.087384,1449,1.7688
159,1782079180.3132553,0.088605,1451,1.7712
160,1782079180.3133721,0.088722,1448,1.7676
161,1782079180.3134196,0.088769,1455,1.7761
162,1782079180.3134649,0.088814,1448,1.7676
163,1782079180.3135028,0.088852,1455,1.7761
164,1782079180.3144,0.089750,1451,1.7712
165,1782079180.3145049,0.089854,1456,1.7773
166,1782079180.3145676,0.089917,1456,1.7773
167,1782079180.314593,0.089943,1460,1.7822
168,1782079180.315221,0.090571,1463,1.7859
169,1782079180.3180292,0.093379,1461,1.7834
170,1782079180.318106,0.093456,1461,1.7834
171,1782079180.3181267,0.093476,1462,1.7847
172,1782079180.318154,0.093504,1463,1.7859
173,1782079180.318181,0.093531,1464,1.7871
174,1782079180.3182888,0.093638,1457,1.7786
175,1782079180.3183703,0.093720,1463,1.7859
176,1782079180.3183925,0.093742,1457,1.7786
177,1782079180.318418,0.093768,1458,1.7798
178,1782079180.3184407,0.093790,1459,1.7810
179,1782079180.3184924,0.093842,1455,1.7761
180,1782079180.3206553,0.096005,1457,1.7786
181,1782079180.3207068,0.096056,1455,1.7761
182,1782079180.320739,0.096089,1450,1.7700
183,1782079180.3207607,0.096110,1451,1.7712
184,1782079180.3212025,0.096552,1451,1.7712
185,1782079180.3214173,0.096767,1447,1.7664
186,1782079180.3214436,0.096793,1449,1.7688
187,1782079180.321462,0.096812,1454,1.7749
188,1782079180.3214788,0.096828,1444,1.7627
189,1782079180.321501,0.096851,1449,1.7688
190,1782079180.3220274,0.097377,1443,1.7615
191,1782079180.3220744,0.097424,1451,1.7712
192,1782079180.3221018,0.097451,1443,1.7615
193,1782079180.3221517,0.097501,1444,1.7627
194,1782079180.322668,0.098018,1441,1.7590
195,1782079180.3228354,0.098185,1449,1.7688
196,1782079180.3238378,0.099187,1445,1.7639
197,1782079180.3238845,0.099234,1454,1.7749
198,1782079180.3243754,0.099725,1448,1.7676
199,1782079180.3249383,0.100288,1449,1.7688
200,1782079180.3255475,0.100897,1449,1.7688
201,1782079180.3262057,0.101555,1447,1.7664
202,1782079180.326294,0.101644,1450,1.7700
203,1782079180.3295074,0.104857,1456,1.7773
204,1782079180.3295884,0.104938,1458,1.7798
205,1782079180.3296266,0.104976,1462,1.7847
206,1782079180.3296728,0.105022,1456,1.7773
207,1782079180.3297193,0.105069,1459,1.7810
208,1782079180.3297775,0.105127,1452,1.7725
209,1782079180.3298094,0.105159,1458,1.7798
210,1782079180.3303785,0.105728,1451,1.7712
211,1782079180.3324528,0.107802,1449,1.7688
212,1782079180.3325126,0.107862,1453,1.7737
213,1782079180.3325698,0.107919,1448,1.7676
214,1782079180.332604,0.107954,1440,1.7578
215,1782079180.33285,0.108200,1442,1.7603
216,1782079180.3337722,0.109122,1444,1.7627
217,1782079180.3338952,0.109245,1441,1.7590
218,1782079180.334357,0.109707,1440,1.7578
219,1782079180.3348923,0.110242,1434,1.7505
220,1782079180.3353775,0.110727,1430,1.7456
221,1782079180.3359022,0.111252,1433,1.7493
222,1782079180.3363934,0.111743,1431,1.7468
223,1782079180.3369124,0.112262,1435,1.7517
224,1782079180.3373182,0.112668,1434,1.7505
225,1782079180.337911,0.113261,1428,1.7432
226,1782079180.338402,0.113752,1432,1.7480
227,1782079180.3388536,0.114203,1427,1.7419
228,1782079180.339356,0.114706,1431,1.7468
229,1782079180.3399115,0.115261,1432,1.7480
230,1782079180.3403625,0.115712,1435,1.7517
231,1782079180.3408875,0.116237,1431,1.7468
232,1782079180.3413541,0.116704,1427,1.7419
233,1782079180.3419054,0.117255,1433,1.7493
234,1782079180.3424091,0.117759,1430,1.7456
235,1782079180.3428676,0.118217,1429,1.7444
236,1782079180.346038,0.121388,1431,1.7468
237,1782079180.3494947,0.124844,1427,1.7419
238,1782079180.3495605,0.124910,1430,1.7456
239,1782079180.353037,0.128387,1427,1.7419
240,1782079180.3530798,0.128429,1430,1.7456
241,1782079180.353103,0.128453,1434,1.7505
242,1782079180.3531466,0.128496,1432,1.7480
243,1782079180.353169,0.128519,1436,1.7529
244,1782079180.3537307,0.129080,1442,1.7603
245,1782079180.3537774,0.129127,1442,1.7603
246,1782079180.3538005,0.129150,1446,1.7651
247,1782079180.353834,0.129184,1445,1.7639
248,1782079180.353853,0.129203,1446,1.7651
249,1782079180.354617,0.129967,1451,1.7712
250,1782079180.3546586,0.130008,1449,1.7688
251,1782079180.3546782,0.130028,1452,1.7725
252,1782079180.3552067,0.130556,1457,1.7786
253,1782079180.3552604,0.130610,1452,1.7725
254,1782079180.3552861,0.130636,1455,1.7761
255,1782079180.3557596,0.131109,1448,1.7676
256,1782079180.3558078,0.131157,1452,1.7725
257,1782079180.355832,0.131182,1445,1.7639
258,1782079180.3558738,0.131223,1445,1.7639
259,1782079180.3563924,0.131742,1442,1.7603
260,1782079180.3564281,0.131778,1444,1.7627
261,1782079180.3564472,0.131797,1444,1.7627
262,1782079180.3564708,0.131820,1436,1.7529
263,1782079180.3589044,0.134254,1437,1.7542
264,1782079180.3589544,0.134304,1434,1.7505
265,1782079180.3589778,0.134327,1435,1.7517
266,1782079180.359008,0.134358,1434,1.7505
267,1782079180.359061,0.134411,1430,1.7456
268,1782079180.3616564,0.137006,1431,1.7468
269,1782079180.3617158,0.137065,1429,1.7444
270,1782079180.361749,0.137099,1430,1.7456
271,1782079180.3617723,0.137122,1425,1.7395
272,1782079180.361825,0.137175,1426,1.7407
273,1782079180.3618546,0.137204,1419,1.7322
274,1782079180.3626423,0.137992,1423,1.7371
275,1782079180.3633368,0.138686,1419,1.7322
276,1782079180.3634,0.138750,1417,1.7297
277,1782079180.3645773,0.139927,1417,1.7297
278,1782079180.3646636,0.140013,1418,1.7310
279,1782079180.3654656,0.140815,1413,1.7249
280,1782079180.3655376,0.140887,1417,1.7297
281,1782079180.3663208,0.141670,1419,1.7322
282,1782079180.3663847,0.141734,1423,1.7371
283,1782079180.3670485,0.142398,1424,1.7383
284,1782079180.3680444,0.143394,1428,1.7432
285,1782079180.3681211,0.143471,1429,1.7444
286,1782079180.369087,0.144437,1432,1.7480
287,1782079180.3714933,0.146843,1433,1.7493
288,1782079180.371535,0.146885,1436,1.7529
289,1782079180.3715572,0.146907,1435,1.7517
290,1782079180.3716037,0.146953,1436,1.7529
291,1782079180.3716288,0.146978,1437,1.7542
292,1782079180.3716698,0.147019,1440,1.7578
293,1782079180.371916,0.147266,1437,1.7542
294,1782079180.3736658,0.149015,1436,1.7529
295,1782079180.37374,0.149090,1438,1.7554
296,1782079180.373768,0.149118,1435,1.7517
297,1782079180.3739119,0.149261,1436,1.7529
298,1782079180.374934,0.150284,1436,1.7529
299,1782079180.3749883,0.150338,1435,1.7517
300,1782079180.3755455,0.150895,1434,1.7505
301,1782079180.3759978,0.151347,1426,1.7407
302,1782079180.376527,0.151877,1428,1.7432
303,1782079180.376951,0.152301,1424,1.7383
304,1782079180.3775184,0.152868,1428,1.7432
305,1782079180.377968,0.153318,1421,1.7346
306,1782079180.3784387,0.153788,1417,1.7297
307,1782079180.3789022,0.154252,1424,1.7383
308,1782079180.379492,0.154842,1416,1.7285
309,1782079180.3799796,0.155329,1417,1.7297
310,1782079180.3803961,0.155746,1412,1.7236
311,1782079180.3809187,0.156268,1412,1.7236
312,1782079180.381454,0.156804,1415,1.7273
313,1782079180.3818967,0.157246,1410,1.7212
314,1782079180.3824534,0.157803,1414,1.7261
315,1782079180.382886,0.158236,1408,1.7188
316,1782079180.3837047,0.159054,1412,1.7236
317,1782079180.383892,0.159242,1413,1.7249
318,1782079180.3844647,0.159814,1416,1.7285
319,1782079180.3849752,0.160325,1415,1.7273
320,1782079180.3936157,0.168965,1420,1.7334
321,1782079180.393694,0.169044,1419,1.7322
322,1782079180.3937426,0.169092,1423,1.7371
323,1782079180.3937702,0.169120,1428,1.7432
324,1782079180.3937962,0.169146,1422,1.7358
325,1782079180.3943074,0.169657,1430,1.7456
326,1782079180.3947237,0.170073,1433,1.7493
327,1782079180.394751,0.170101,1436,1.7529
328,1782079180.394774,0.170124,1431,1.7468
329,1782079180.395184,0.170534,1436,1.7529
330,1782079180.3952105,0.170560,1433,1.7493
331,1782079180.3952374,0.170587,1441,1.7590
332,1782079180.3952565,0.170606,1439,1.7566
333,1782079180.3956306,0.170980,1443,1.7615
334,1782079180.3957877,0.171137,1438,1.7554
335,1782079180.3958335,0.171183,1440,1.7578
336,1782079180.395918,0.171268,1432,1.7480
337,1782079180.399869,0.175219,1434,1.7505
338,1782079180.3999176,0.175267,1426,1.7407
339,1782079180.3999405,0.175290,1430,1.7456
340,1782079180.3999596,0.175309,1420,1.7334
341,1782079180.40008,0.175430,1425,1.7395
342,1782079180.400126,0.175476,1414,1.7261
343,1782079180.4001563,0.175506,1417,1.7297
344,1782079180.4001782,0.175528,1409,1.7200
345,1782079180.4002063,0.175556,1411,1.7224
346,1782079180.4002273,0.175577,1404,1.7139
347,1782079180.4002483,0.175598,1407,1.7175
348,1782079180.400291,0.175641,1406,1.7163
349,1782079180.400318,0.175668,1408,1.7188
350,1782079180.403238,0.178588,1399,1.7078
351,1782079180.4032946,0.178644,1402,1.7114
352,1782079180.4033191,0.178669,1400,1.7090
353,1782079180.403349,0.178699,1400,1.7090
354,1782079180.4033701,0.178720,1391,1.6980
355,1782079180.4034169,0.178766,1401,1.7102
356,1782079180.4034448,0.178794,1401,1.7102
357,1782079180.404019,0.179369,1403,1.7126
358,1782079180.4045541,0.179904,1405,1.7151
359,1782079180.4052005,0.180550,1407,1.7175
360,1782079180.4057765,0.181126,1408,1.7188
361,1782079180.4064617,0.181811,1411,1.7224
362,1782079180.4065151,0.181865,1414,1.7261
363,1782079180.4071882,0.182538,1423,1.7371
364,1782079180.4078336,0.183183,1429,1.7444
365,1782079180.4109268,0.186276,1431,1.7468
366,1782079180.410988,0.186338,1437,1.7542
367,1782079180.411036,0.186386,1438,1.7554
368,1782079180.4111638,0.186513,1439,1.7566
369,1782079180.4113226,0.186672,1444,1.7627
370,1782079180.4113815,0.186731,1445,1.7639
371,1782079180.41144,0.186790,1445,1.7639
372,1782079180.4114747,0.186824,1443,1.7615
373,1782079180.4126098,0.187959,1445,1.7639
374,1782079180.4141312,0.189481,1442,1.7603
375,1782079180.4141834,0.189533,1442,1.7603
376,1782079180.4142406,0.189590,1446,1.7651
377,1782079180.4142997,0.189649,1436,1.7529
378,1782079180.4145067,0.189856,1441,1.7590
379,1782079180.4150462,0.190396,1434,1.7505
380,1782079180.4156644,0.191014,1430,1.7456
381,1782079180.4162276,0.191577,1425,1.7395
382,1782079180.416542,0.191892,1427,1.7419
383,1782079180.417041,0.192391,1421,1.7346
384,1782079180.417523,0.192873,1418,1.7310
385,1782079180.4180152,0.193365,1412,1.7236
386,1782079180.4185503,0.193900,1407,1.7175
387,1782079180.419013,0.194363,1412,1.7236
388,1782079180.4195297,0.194879,1407,1.7175
389,1782079180.4200847,0.195434,1406,1.7163
390,1782079180.420531,0.195881,1405,1.7151
391,1782079180.4210722,0.196422,1394,1.7017
392,1782079180.4214866,0.196836,1396,1.7041
393,1782079180.422038,0.197388,1396,1.7041
394,1782079180.4225492,0.197899,1390,1.6968
395,1782079180.4233136,0.198663,1390,1.6968
396,1782079180.4235153,0.198865,1392,1.6992
397,1782079180.4239974,0.199347,1397,1.7053
398,1782079180.4296894,0.205039,1394,1.7017
399,1782079180.4309356,0.206285,1403,1.7126
400,1782079180.4309936,0.206343,1402,1.7114
401,1782079180.4325354,0.207885,1405,1.7151
402,1782079180.4325857,0.207935,1403,1.7126
403,1782079180.43261,0.207960,1406,1.7163
404,1782079180.4337366,0.209086,1409,1.7200
405,1782079180.4351072,0.210457,1407,1.7175
406,1782079180.4351592,0.210509,1420,1.7334
407,1782079180.4351814,0.210531,1412,1.7236
408,1782079180.435206,0.210556,1415,1.7273
409,1782079180.435225,0.210575,1416,1.7285
410,1782079180.436221,0.211571,1414,1.7261
411,1782079180.436305,0.211655,1416,1.7285
412,1782079180.4363563,0.211706,1414,1.7261
413,1782079180.4390814,0.214431,1414,1.7261
414,1782079180.4391298,0.214479,1416,1.7285
415,1782079180.4391627,0.214512,1414,1.7261
416,1782079180.439186,0.214536,1411,1.7224
417,1782079180.439219,0.214569,1411,1.7224
418,1782079180.4392428,0.214592,1410,1.7212
419,1782079180.4392629,0.214612,1409,1.7200
420,1782079180.4392848,0.214634,1397,1.7053
421,1782079180.4420555,0.217405,1402,1.7114
422,1782079180.442111,0.217461,1403,1.7126
423,1782079180.4421346,0.217484,1398,1.7065
424,1782079180.4422028,0.217552,1390,1.6968
425,1782079180.4422343,0.217584,1390,1.6968
426,1782079180.4428406,0.218190,1383,1.6882
427,1782079180.4428966,0.218246,1386,1.6919
428,1782079180.4429328,0.218282,1380,1.6846
429,1782079180.442955,0.218305,1380,1.6846
430,1782079180.4429796,0.218329,1382,1.6870
431,1782079180.4435616,0.218911,1375,1.6785
432,1782079180.4436016,0.218951,1382,1.6870
433,1782079180.4436228,0.218972,1374,1.6772
434,1782079180.4436793,0.219029,1379,1.6833
435,1782079180.4437313,0.219081,1378,1.6821
436,1782079180.4437785,0.219128,1386,1.6919
437,1782079180.4443605,0.219710,1391,1.6980
438,1782079180.4449692,0.220319,1394,1.7017
439,1782079180.4450462,0.220396,1397,1.7053
440,1782079180.4457676,0.221117,1397,1.7053
441,1782079180.4465375,0.221887,1403,1.7126
442,1782079180.446599,0.221949,1403,1.7126
443,1782079180.4475272,0.222877,1411,1.7224
444,1782079180.4475892,0.222939,1404,1.7139
445,1782079180.4506283,0.225978,1415,1.7273
446,1782079180.4506903,0.226040,1410,1.7212
447,1782079180.450722,0.226072,1411,1.7224
448,1782079180.45075,0.226100,1409,1.7200
449,1782079180.4507995,0.226149,1413,1.7249
450,1782079180.4508295,0.226179,1414,1.7261
451,1782079180.4510689,0.226418,1413,1.7249
452,1782079180.4531264,0.228476,1408,1.7188
453,1782079180.4532187,0.228568,1407,1.7175
454,1782079180.4532573,0.228607,1407,1.7175
455,1782079180.453307,0.228657,1408,1.7188
456,1782079180.4535353,0.228885,1409,1.7200
457,1782079180.4540663,0.229416,1406,1.7163
458,1782079180.4546719,0.230021,1405,1.7151
459,1782079180.455246,0.230596,1402,1.7114
460,1782079180.45552,0.230870,1398,1.7065
461,1782079180.45607,0.231420,1395,1.7029
462,1782079180.4565442,0.231894,1394,1.7017
463,1782079180.457067,0.232417,1394,1.7017
464,1782079180.4575436,0.232893,1400,1.7090
465,1782079180.4580474,0.233397,1397,1.7053
466,1782079180.458573,0.233923,1396,1.7041
467,1782079180.4590662,0.234416,1402,1.7114
468,1782079180.4595711,0.234921,1399,1.7078
469,1782079180.4600732,0.235423,1403,1.7126
470,1782079180.460571,0.235921,1402,1.7114
471,1782079180.461056,0.236406,1405,1.7151
472,1782079180.4615636,0.236913,1397,1.7053
473,1782079180.462049,0.237399,1404,1.7139
474,1782079180.4625692,0.237919,1401,1.7102
475,1782079180.4630492,0.238399,1408,1.7188
476,1782079180.4635615,0.238911,1408,1.7188
477,1782079180.4641972,0.239547,1410,1.7212
478,1782079180.464606,0.239956,1413,1.7249
479,1782079180.4651418,0.240491,1413,1.7249
480,1782079180.4727128,0.248062,1415,1.7273
481,1782079180.474778,0.250128,1418,1.7310
482,1782079180.4748182,0.250168,1419,1.7322
483,1782079180.4748442,0.250194,1424,1.7383
484,1782079180.4753664,0.250716,1425,1.7395
485,1782079180.475392,0.250742,1427,1.7419
486,1782079180.4754155,0.250765,1427,1.7419
487,1782079180.4758615,0.251211,1429,1.7444
488,1782079180.475888,0.251238,1434,1.7505
489,1782079180.4763165,0.251666,1431,1.7468
490,1782079180.4767396,0.252089,1428,1.7432
491,1782079180.4767656,0.252115,1429,1.7444
492,1782079180.4771974,0.252547,1432,1.7480
493,1782079180.477224,0.252574,1428,1.7432
494,1782079180.4801316,0.255481,1427,1.7419
495,1782079180.48022,0.255570,1430,1.7456
496,1782079180.480268,0.255618,1427,1.7419
497,1782079180.480314,0.255664,1426,1.7407
498,1782079180.4803638,0.255713,1423,1.7371
499,1782079180.480409,0.255759,1424,1.7383
500,1782079180.480442,0.255792,1420,1.7334
501,1782079180.4804704,0.255820,1420,1.7334
502,1782079180.4805071,0.255857,1416,1.7285
503,1782079180.480537,0.255887,1418,1.7310
504,1782079180.4805834,0.255933,1411,1.7224
505,1782079180.4832838,0.258633,1412,1.7236
506,1782079180.4837773,0.259127,1410,1.7212
507,1782079180.4838245,0.259174,1410,1.7212
508,1782079180.48385,0.259200,1405,1.7151
509,1782079180.484304,0.259654,1407,1.7175
510,1782079180.4843795,0.259729,1400,1.7090
511,1782079180.484416,0.259766,1403,1.7126
512,1782079180.4844475,0.259797,1405,1.7151
513,1782079180.4844747,0.259824,1404,1.7139
514,1782079180.484938,0.260288,1408,1.7188
515,1782079180.4850125,0.260362,1409,1.7200
516,1782079180.4850414,0.260391,1405,1.7151
517,1782079180.485525,0.260875,1410,1.7212
518,1782079180.4856093,0.260959,1409,1.7200
519,1782079180.4856384,0.260988,1407,1.7175
520,1782079180.4856665,0.261016,1408,1.7188
521,1782079180.486603,0.261953,1406,1.7163
522,1782079180.486661,0.262011,1410,1.7212
523,1782079180.4871411,0.262491,1408,1.7188
524,1782079180.489715,0.265065,1407,1.7175
525,1782079180.4897902,0.265140,1406,1.7163
526,1782079180.4898207,0.265170,1410,1.7212
527,1782079180.489855,0.265205,1403,1.7126
528,1782079180.4898803,0.265230,1411,1.7224
529,1782079180.4901679,0.265517,1408,1.7188
530,1782079180.491719,0.267069,1406,1.7163
531,1782079180.4918048,0.267154,1408,1.7188
532,1782079180.4918463,0.267196,1410,1.7212
533,1782079180.492143,0.267493,1403,1.7126
534,1782079180.4928484,0.268198,1396,1.7041
535,1782079180.4933157,0.268665,1402,1.7114
536,1782079180.49365,0.269000,1399,1.7078
537,1782079180.494186,0.269536,1398,1.7065
538,1782079180.494623,0.269973,1396,1.7041
539,1782079180.4951923,0.270542,1394,1.7017
540,1782079180.495621,0.270971,1395,1.7029
541,1782079180.4961946,0.271544,1393,1.7004
542,1782079180.496652,0.272002,1392,1.6992
543,1782079180.497212,0.272562,1397,1.7053
544,1782079180.4976916,0.273041,1397,1.7053
545,1782079180.4981887,0.273538,1391,1.6980
546,1782079180.4986897,0.274039,1386,1.6919
547,1782079180.4992208,0.274570,1384,1.6895
548,1782079180.4997349,0.275084,1389,1.6956
549,1782079180.5002303,0.275580,1391,1.6980
550,1782079180.500798,0.276148,1393,1.7004
551,1782079180.501127,0.276477,1394,1.7017
552,1782079180.5016296,0.276979,1396,1.7041
553,1782079180.5021186,0.277468,1392,1.6992
554,1782079180.5028398,0.278189,1398,1.7065
555,1782079180.5089357,0.284285,1396,1.7041
556,1782079180.511435,0.286785,1399,1.7078
557,1782079180.5114775,0.286827,1400,1.7090
558,1782079180.511508,0.286858,1404,1.7139
559,1782079180.511535,0.286885,1402,1.7114
560,1782079180.5115614,0.286911,1402,1.7114
561,1782079180.512353,0.287703,1404,1.7139
562,1782079180.5133553,0.288705,1408,1.7188
563,1782079180.517305,0.292655,1413,1.7249
564,1782079180.5173888,0.292738,1413,1.7249
565,1782079180.517439,0.292789,1413,1.7249
566,1782079180.5174978,0.292847,1418,1.7310
567,1782079180.5175545,0.292904,1415,1.7273
568,1782079180.5175855,0.292935,1407,1.7175
569,1782079180.5176125,0.292962,1414,1.7261
570,1782079180.5176713,0.293021,1409,1.7200
571,1782079180.520246,0.295596,1410,1.7212
572,1782079180.520303,0.295653,1409,1.7200
573,1782079180.5203502,0.295700,1404,1.7139
574,1782079180.520392,0.295742,1406,1.7163
575,1782079180.5204155,0.295765,1409,1.7200
576,1782079180.5208483,0.296198,1400,1.7090
577,1782079180.5208747,0.296224,1398,1.7065
578,1782079180.5209012,0.296251,1405,1.7151
579,1782079180.520923,0.296273,1397,1.7053
580,1782079180.5209575,0.296307,1403,1.7126
581,1782079180.520992,0.296342,1397,1.7053
582,1782079180.5210164,0.296366,1396,1.7041
583,1782079180.5210404,0.296390,1398,1.7065
584,1782079180.5210652,0.296415,1392,1.6992
585,1782079180.5210857,0.296435,1398,1.7065
586,1782079180.521487,0.296837,1395,1.7029
587,1782079180.521511,0.296861,1399,1.7078
588,1782079180.521549,0.296899,1401,1.7102
589,1782079180.521571,0.296921,1400,1.7090
590,1782079180.5216076,0.296957,1401,1.7102
591,1782079180.5216293,0.296979,1404,1.7139
592,1782079180.5216744,0.297024,1403,1.7126
593,1782079180.5221655,0.297515,1406,1.7163
594,1782079180.5230396,0.298389,1407,1.7175
595,1782079180.5231352,0.298485,1412,1.7236
596,1782079180.5239825,0.299332,1407,1.7175
597,1782079180.5266056,0.301955,1409,1.7200
598,1782079180.5266721,0.302022,1408,1.7188
599,1782079180.5267005,0.302050,1407,1.7175
600,1782079180.5267382,0.302088,1407,1.7175
601,1782079180.5267649,0.302114,1412,1.7236
602,1782079180.526803,0.302153,1409,1.7200
603,1782079180.5277216,0.303071,1412,1.7236
604,1782079180.5286474,0.303997,1411,1.7224
605,1782079180.5287278,0.304077,1410,1.7212
606,1782079180.528758,0.304108,1409,1.7200
607,1782079180.5291855,0.304535,1411,1.7224
608,1782079180.530382,0.305732,1412,1.7236
609,1782079180.5304458,0.305795,1411,1.7224
610,1782079180.5306845,0.306034,1409,1.7200
611,1782079180.5311863,0.306536,1412,1.7236
612,1782079180.5317025,0.307052,1402,1.7114
613,1782079180.5322049,0.307554,1403,1.7126
614,1782079180.5326922,0.308042,1400,1.7090
615,1782079180.5332015,0.308551,1397,1.7053
616,1782079180.5336912,0.309041,1396,1.7041
617,1782079180.534177,0.309527,1387,1.6931
618,1782079180.5346944,0.310044,1383,1.6882
619,1782079180.5351787,0.310528,1382,1.6870
620,1782079180.5356915,0.311041,1377,1.6809
621,1782079180.5361886,0.311538,1379,1.6833
622,1782079180.536695,0.312045,1374,1.6772
623,1782079180.5371854,0.312535,1377,1.6809
624,1782079180.5377235,0.313073,1379,1.6833
625,1782079180.5384347,0.313784,1383,1.6882
626,1782079180.5386992,0.314049,1384,1.6895
627,1782079180.5392256,0.314575,1383,1.6882
628,1782079180.539675,0.315025,1384,1.6895
629,1782079180.5463731,0.321723,1379,1.6833
630,1782079180.5530157,0.328365,1381,1.6858
631,1782079180.554297,0.329647,1386,1.6919
632,1782079180.554354,0.329704,1383,1.6882
633,1782079180.5543878,0.329737,1383,1.6882
634,1782079180.555498,0.330848,1387,1.6931
635,1782079180.55845,0.333800,1384,1.6895
636,1782079180.5585308,0.333880,1392,1.6992
637,1782079180.5586016,0.333951,1394,1.7017
638,1782079180.5586648,0.334014,1391,1.6980
639,1782079180.5587015,0.334051,1393,1.7004
640,1782079180.5587587,0.334108,1400,1.7090
641,1782079180.5587933,0.334143,1400,1.7090
642,1782079180.558825,0.334175,1401,1.7102
643,1782079180.5588737,0.334223,1398,1.7065
644,1782079180.5589058,0.334255,1401,1.7102
645,1782079180.5618124,0.337162,1404,1.7139
646,1782079180.5618775,0.337227,1401,1.7102
647,1782079180.561911,0.337261,1401,1.7102
648,1782079180.561949,0.337299,1394,1.7017
649,1782079180.5623815,0.337731,1396,1.7041
650,1782079180.5624542,0.337804,1393,1.7004
651,1782079180.5625052,0.337855,1394,1.7017
652,1782079180.5625513,0.337901,1394,1.7017
653,1782079180.5625994,0.337949,1397,1.7053
654,1782079180.5626426,0.337992,1400,1.7090
655,1782079180.5626912,0.338041,1398,1.7065
656,1782079180.5627403,0.338090,1394,1.7017
657,1782079180.5632248,0.338574,1397,1.7053
658,1782079180.5632942,0.338644,1395,1.7029
659,1782079180.5633745,0.338724,1395,1.7029
660,1782079180.563458,0.338808,1395,1.7029
661,1782079180.5635562,0.338906,1395,1.7029
662,1782079180.5636146,0.338964,1390,1.6968
663,1782079180.5636637,0.339013,1388,1.6943
664,1782079180.5644593,0.339809,1387,1.6931
665,1782079180.5644822,0.339832,1385,1.6907
666,1782079180.564527,0.339877,1386,1.6919
667,1782079180.5645492,0.339899,1385,1.6907
668,1782079180.5645888,0.339938,1387,1.6931
669,1782079180.5646088,0.339958,1384,1.6895
670,1782079180.5646307,0.339980,1386,1.6919
671,1782079180.5646658,0.340015,1381,1.6858
672,1782079180.5646908,0.340040,1384,1.6895
673,1782079180.5647113,0.340061,1381,1.6858
674,1782079180.5647297,0.340079,1381,1.6858
675,1782079180.5654004,0.340750,1383,1.6882
676,1782079180.5654218,0.340771,1388,1.6943
677,1782079180.565445,0.340795,1387,1.6931
678,1782079180.5654855,0.340835,1392,1.6992
679,1782079180.5655248,0.340874,1391,1.6980
680,1782079180.566268,0.341618,1394,1.7017
681,1782079180.5663064,0.341656,1392,1.6992
682,1782079180.5670528,0.342402,1405,1.7151
683,1782079180.5678194,0.343169,1403,1.7126
684,1782079180.5678527,0.343202,1411,1.7224
685,1782079180.5724447,0.347794,1404,1.7139
686,1782079180.572484,0.347834,1411,1.7224
687,1782079180.5725322,0.347882,1411,1.7224
688,1782079180.572566,0.347916,1418,1.7310
689,1782079180.5726194,0.347969,1415,1.7273
690,1782079180.5726497,0.347999,1419,1.7322
691,1782079180.5727007,0.348050,1417,1.7297
692,1782079180.5727327,0.348082,1418,1.7310
693,1782079180.5727632,0.348113,1416,1.7285
694,1782079180.572793,0.348143,1415,1.7273
695,1782079180.5744548,0.349804,1412,1.7236
696,1782079180.5763097,0.351659,1410,1.7212
697,1782079180.5764322,0.351782,1409,1.7200
698,1782079180.57649,0.351840,1413,1.7249
699,1782079180.5765474,0.351897,1403,1.7126
700,1782079180.576601,0.351951,1404,1.7139
701,1782079180.5766454,0.351995,1400,1.7090
702,1782079180.5767598,0.352109,1402,1.7114
703,1782079180.5772562,0.352606,1394,1.7017
704,1782079180.5781283,0.353478,1396,1.7041
705,1782079180.5782988,0.353648,1389,1.6956
706,1782079180.5789585,0.354308,1395,1.7029
707,1782079180.5792844,0.354634,1388,1.6943
708,1782079180.5797813,0.355131,1392,1.6992
709,1782079180.5802739,0.355623,1396,1.7041
710,1782079180.5807943,0.356144,1392,1.6992
711,1782079180.5812964,0.356646,1390,1.6968
712,1782079180.5817454,0.357095,1390,1.6968
713,1782079180.5822864,0.357636,1389,1.6956
714,1782079180.5827384,0.358088,1397,1.7053
715,1782079180.583278,0.358628,1384,1.6895
716,1782079180.5837433,0.359093,1387,1.6931
717,1782079180.584284,0.359634,1378,1.6821
718,1782079180.5847692,0.360119,1384,1.6895
719,1782079180.5852869,0.360636,1382,1.6870
720,1782079180.5857449,0.361094,1381,1.6858
721,1782079180.5862794,0.361629,1373,1.6760
722,1782079180.5867753,0.362125,1378,1.6821
723,1782079180.5872836,0.362633,1378,1.6821
724,1782079180.5877924,0.363142,1375,1.6785
725,1782079180.588277,0.363627,1375,1.6785
726,1782079180.5887928,0.364142,1375,1.6785
727,1782079180.589409,0.364759,1375,1.6785
728,1782079180.589813,0.365163,1377,1.6809
729,1782079180.5903263,0.365676,1376,1.6797
730,1782079180.590799,0.366149,1385,1.6907
731,1782079180.5939932,0.369343,1387,1.6931
732,1782079180.6012702,0.376620,1399,1.7078
733,1782079180.6013336,0.376683,1392,1.6992
734,1782079180.6013632,0.376713,1405,1.7151
735,1782079180.6013916,0.376741,1400,1.7090
736,1782079180.6021557,0.377505,1412,1.7236
737,1782079180.602918,0.378268,1407,1.7175
738,1782079180.6029487,0.378298,1414,1.7261
739,1782079180.6036253,0.378975,1409,1.7200
740,1782079180.6043105,0.379660,1411,1.7224
741,1782079180.6043377,0.379687,1410,1.7212
742,1782079180.6049883,0.380338,1411,1.7224
743,1782079180.6050148,0.380364,1409,1.7200
744,1782079180.6050415,0.380391,1410,1.7212
745,1782079180.6091883,0.384538,1406,1.7163
746,1782079180.6092641,0.384614,1415,1.7273
747,1782079180.6093209,0.384670,1406,1.7163
748,1782079180.6093569,0.384706,1405,1.7151
749,1782079180.6093936,0.384743,1410,1.7212
750,1782079180.6094515,0.384801,1411,1.7224
751,1782079180.60951,0.384860,1405,1.7151
752,1782079180.6095505,0.384900,1405,1.7151
753,1782079180.6095846,0.384934,1409,1.7200
754,1782079180.6096268,0.384976,1402,1.7114
755,1782079180.6096585,0.385008,1406,1.7163
756,1782079180.6096926,0.385042,1407,1.7175
757,1782079180.60975,0.385100,1406,1.7163
758,1782079180.6097848,0.385134,1401,1.7102
759,1782079180.6131594,0.388509,1403,1.7126
760,1782079180.6133268,0.388676,1400,1.7090
761,1782079180.6133888,0.388738,1402,1.7114
762,1782079180.613487,0.388837,1401,1.7102
763,1782079180.6143706,0.389720,1406,1.7163
764,1782079180.6144233,0.389773,1403,1.7126
765,1782079180.6144578,0.389807,1407,1.7175
766,1782079180.6144896,0.389839,1405,1.7151
767,1782079180.6145494,0.389899,1404,1.7139
768,1782079180.6146061,0.389956,1412,1.7236
769,1782079180.6146376,0.389987,1409,1.7200
770,1782079180.6153698,0.390719,1411,1.7224
771,1782079180.615402,0.390752,1408,1.7188
772,1782079180.6154566,0.390806,1409,1.7200
773,1782079180.615488,0.390838,1413,1.7249
774,1782079180.6155155,0.390865,1411,1.7224
775,1782079180.6155596,0.390909,1408,1.7188
776,1782079180.6155875,0.390937,1409,1.7200
777,1782079180.6156695,0.391019,1409,1.7200
778,1782079180.6157005,0.391050,1407,1.7175
779,1782079180.61638,0.391730,1402,1.7114
780,1782079180.616411,0.391761,1404,1.7139
781,1782079180.61644,0.391790,1400,1.7090
782,1782079180.6171696,0.392519,1394,1.7017
783,1782079180.6173139,0.392663,1394,1.7017
784,1782079180.617965,0.393315,1391,1.6980
785,1782079180.6188529,0.394202,1395,1.7029
786,1782079180.618902,0.394252,1388,1.6943
787,1782079180.620069,0.395419,1384,1.6895
788,1782079180.620127,0.395477,1384,1.6895
789,1782079180.620336,0.395686,1380,1.6846
790,1782079180.6214356,0.396785,1382,1.6870
791,1782079180.621828,0.397178,1381,1.6858
792,1782079180.6219647,0.397314,1379,1.6833
793,1782079180.627003,0.402353,1381,1.6858
794,1782079180.6270912,0.402441,1386,1.6919
795,1782079180.6271687,0.402518,1383,1.6882
796,1782079180.627221,0.402571,1387,1.6931
797,1782079180.6272948,0.402644,1383,1.6882
798,1782079180.6274102,0.402760,1383,1.6882
799,1782079180.6274793,0.402829,1390,1.6968
800,1782079180.6275759,0.402925,1389,1.6956
801,1782079180.627613,0.402963,1395,1.7029
802,1782079180.6276712,0.403021,1394,1.7017
803,1782079180.627706,0.403056,1398,1.7065
804,1782079180.6278582,0.403208,1395,1.7029
805,1782079180.6291246,0.404474,1398,1.7065
806,1782079180.6310923,0.406442,1398,1.7065
807,1782079180.6311452,0.406495,1408,1.7188
808,1782079180.6312013,0.406551,1403,1.7126
809,1782079180.6312308,0.406580,1402,1.7114
810,1782079180.6312592,0.406609,1398,1.7065
811,1782079180.631363,0.406713,1400,1.7090
812,1782079180.6319082,0.407258,1394,1.7017
813,1782079180.6329298,0.408279,1394,1.7017
814,1782079180.6329727,0.408322,1389,1.6956
815,1782079180.633637,0.408987,1385,1.6907
816,1782079180.6338766,0.409226,1381,1.6858
817,1782079180.6343923,0.409742,1377,1.6809
818,1782079180.6348784,0.410228,1377,1.6809
819,1782079180.6354706,0.410820,1378,1.6821
820,1782079180.635893,0.411243,1377,1.6809
821,1782079180.6363826,0.411732,1378,1.6821
822,1782079180.6368728,0.412222,1377,1.6809
823,1782079180.637473,0.412823,1380,1.6846
824,1782079180.6378906,0.413240,1388,1.6943
825,1782079180.6383839,0.413733,1389,1.6956
826,1782079180.6388705,0.414220,1391,1.6980
827,1782079180.6393654,0.414715,1389,1.6956
828,1782079180.639876,0.415226,1392,1.6992
829,1782079180.6403835,0.415733,1397,1.7053
830,1782079180.6408803,0.416230,1391,1.6980
831,1782079180.641464,0.416814,1402,1.7114
832,1782079180.6418765,0.417226,1401,1.7102
833,1782079180.6429975,0.418347,1404,1.7139
834,1782079180.6430414,0.418391,1407,1.7175
835,1782079180.6434772,0.418827,1404,1.7139
836,1782079180.643897,0.419247,1402,1.7114
837,1782079180.646354,0.421704,1410,1.7212
838,1782079180.6532884,0.428638,1406,1.7163
839,1782079180.6533883,0.428738,1413,1.7249
840,1782079180.6539228,0.429272,1408,1.7188
841,1782079180.6539524,0.429302,1410,1.7212
842,1782079180.6539814,0.429331,1410,1.7212
843,1782079180.654412,0.429762,1408,1.7188
844,1782079180.6544359,0.429785,1412,1.7236
845,1782079180.6548467,0.430196,1410,1.7212
846,1782079180.6548898,0.430239,1410,1.7212
847,1782079180.6549175,0.430267,1411,1.7224
848,1782079180.6553447,0.430694,1408,1.7188
849,1782079180.6557484,0.431098,1405,1.7151
850,1782079180.6557732,0.431123,1411,1.7224
851,1782079180.6580613,0.433411,1406,1.7163
852,1782079180.6580896,0.433439,1405,1.7151
853,1782079180.658129,0.433479,1408,1.7188
854,1782079180.6581683,0.433518,1404,1.7139
855,1782079180.6581953,0.433545,1399,1.7078
856,1782079180.6582344,0.433584,1395,1.7029
857,1782079180.6582584,0.433608,1397,1.7053
858,1782079180.6583,0.433650,1396,1.7041
859,1782079180.6583252,0.433675,1396,1.7041
860,1782079180.658355,0.433705,1390,1.6968
861,1782079180.6583798,0.433729,1395,1.7029
862,1782079180.6584022,0.433752,1388,1.6943
863,1782079180.6584387,0.433788,1386,1.6919
864,1782079180.6604798,0.435829,1380,1.6846
865,1782079180.660507,0.435857,1382,1.6870
866,1782079180.660532,0.435882,1376,1.6797
867,1782079180.6609724,0.436322,1381,1.6858
868,1782079180.660997,0.436347,1373,1.6760
869,1782079180.6610227,0.436372,1381,1.6858
870,1782079180.661074,0.436424,1376,1.6797
871,1782079180.661729,0.437079,1379,1.6833
872,1782079180.6624727,0.437822,1378,1.6821
873,1782079180.6625175,0.437867,1381,1.6858
874,1782079180.6633675,0.438717,1384,1.6895
875,1782079180.6635785,0.438928,1381,1.6858
876,1782079180.6641662,0.439516,1385,1.6907
877,1782079180.664732,0.440082,1392,1.6992
878,1782079180.6653175,0.440667,1387,1.6931
879,1782079180.6658638,0.441213,1388,1.6943
880,1782079180.6659205,0.441270,1391,1.6980
881,1782079180.6690469,0.444396,1389,1.6956
882,1782079180.6692226,0.444572,1397,1.7053
883,1782079180.6692712,0.444621,1389,1.6956
884,1782079180.6693006,0.444650,1397,1.7053
885,1782079180.6693397,0.444689,1395,1.7029
886,1782079180.6693661,0.444716,1400,1.7090
887,1782079180.6694558,0.444805,1394,1.7017
888,1782079180.6705039,0.445853,1398,1.7065
889,1782079180.6716447,0.446994,1397,1.7053
890,1782079180.6716905,0.447040,1397,1.7053
891,1782079180.6717193,0.447069,1395,1.7029
892,1782079180.671947,0.447297,1400,1.7090
893,1782079180.6727479,0.448097,1404,1.7139
894,1782079180.672941,0.448291,1405,1.7151
895,1782079180.6734645,0.448814,1406,1.7163
896,1782079180.6739547,0.449304,1403,1.7126
897,1782079180.6744652,0.449815,1402,1.7114
898,1782079180.6749556,0.450305,1402,1.7114
899,1782079180.6754692,0.450819,1400,1.7090
900,1782079180.675936,0.451286,1403,1.7126
901,1782079180.6764681,0.451818,1399,1.7078
902,1782079180.6769357,0.452285,1401,1.7102
903,1782079180.6774483,0.452798,1393,1.7004
904,1782079180.6779535,0.453303,1401,1.7102
905,1782079180.6784663,0.453816,1394,1.7017
906,1782079180.678953,0.454303,1402,1.7114
907,1782079180.6794565,0.454806,1393,1.7004
908,1782079180.6799698,0.455319,1396,1.7041
909,1782079180.6805065,0.455856,1399,1.7078
910,1782079180.680974,0.456324,1397,1.7053
911,1782079180.6814487,0.456798,1396,1.7041
912,1782079180.6822255,0.457575,1397,1.7053
913,1782079180.6892724,0.464622,1394,1.7017
914,1782079180.6902149,0.465564,1395,1.7029
915,1782079180.690249,0.465599,1393,1.7004
916,1782079180.6902733,0.465623,1395,1.7029
917,1782079180.6907678,0.466117,1398,1.7065
918,1782079180.6907935,0.466143,1402,1.7114
919,1782079180.6912587,0.466608,1405,1.7151
920,1782079180.6912863,0.466636,1403,1.7126
921,1782079180.6917658,0.467115,1407,1.7175
922,1782079180.692209,0.467559,1408,1.7188
923,1782079180.6922393,0.467589,1404,1.7139
924,1782079180.6922624,0.467612,1410,1.7212
925,1782079180.6926816,0.468031,1412,1.7236
926,1782079180.6950336,0.470383,1408,1.7188
927,1782079180.6950793,0.470429,1410,1.7212
928,1782079180.6951156,0.470465,1412,1.7236
929,1782079180.6951425,0.470492,1414,1.7261
930,1782079180.6951828,0.470532,1405,1.7151
931,1782079180.6952035,0.470553,1406,1.7163
932,1782079180.695226,0.470576,1404,1.7139
933,1782079180.6953042,0.470654,1404,1.7139
934,1782079180.695376,0.470726,1400,1.7090
935,1782079180.6954222,0.470772,1400,1.7090
936,1782079180.6954923,0.470842,1397,1.7053
937,1782079180.6955664,0.470916,1397,1.7053
938,1782079180.695669,0.471019,1391,1.6980
939,1782079180.6957092,0.471059,1391,1.6980
940,1782079180.6983888,0.473738,1397,1.7053
941,1782079180.6984348,0.473784,1385,1.6907
942,1782079180.6984775,0.473827,1388,1.6943
943,1782079180.699091,0.474441,1379,1.6833
944,1782079180.6991696,0.474519,1381,1.6858
945,1782079180.6992226,0.474572,1382,1.6870
946,1782079180.699264,0.474614,1381,1.6858
947,1782079180.7000074,0.475357,1384,1.6895
948,1782079180.7001338,0.475483,1385,1.6907
949,1782079180.7007196,0.476069,1381,1.6858
950,1782079180.7012656,0.476615,1385,1.6907
951,1782079180.7017791,0.477129,1384,1.6895
952,1782079180.7022734,0.477623,1386,1.6919
953,1782079180.7027524,0.478102,1392,1.6992
954,1782079180.7032318,0.478581,1394,1.7017
955,1782079180.7059662,0.481316,1393,1.7004
956,1782079180.706005,0.481355,1397,1.7053
957,1782079180.7060547,0.481404,1399,1.7078
958,1782079180.7060962,0.481446,1409,1.7200
959,1782079180.7061236,0.481473,1407,1.7175
960,1782079180.706165,0.481515,1414,1.7261
961,1782079180.7083113,0.483661,1413,1.7249
962,1782079180.708397,0.483747,1411,1.7224
963,1782079180.7084324,0.483782,1417,1.7297
964,1782079180.7084756,0.483825,1420,1.7334
965,1782079180.7085056,0.483855,1418,1.7310
966,1782079180.70903,0.484380,1418,1.7310
967,1782079180.7096367,0.484986,1421,1.7346
968,1782079180.7101495,0.485499,1426,1.7407
969,1782079180.710526,0.485876,1419,1.7322
970,1782079180.7110417,0.486391,1421,1.7346
971,1782079180.7115445,0.486894,1424,1.7383
972,1782079180.7120416,0.487391,1418,1.7310
973,1782079180.7125514,0.487901,1427,1.7419
974,1782079180.7130816,0.488431,1418,1.7310
975,1782079180.7135243,0.488874,1412,1.7236
976,1782079180.7140698,0.489419,1414,1.7261
977,1782079180.7145503,0.489900,1417,1.7297
978,1782079180.715015,0.490365,1408,1.7188
979,1782079180.7155054,0.490855,1410,1.7212
980,1782079180.7160156,0.491365,1409,1.7200
981,1782079180.7165046,0.491854,1409,1.7200
982,1782079180.717064,0.492414,1403,1.7126
983,1782079180.7176123,0.492962,1405,1.7151
984,1782079180.7180445,0.493394,1409,1.7200
985,1782079180.7186775,0.494027,1401,1.7102
986,1782079180.7191162,0.494466,1399,1.7078
987,1782079180.7195094,0.494859,1403,1.7126
988,1782079180.727771,0.503121,1393,1.7004
989,1782079180.7278569,0.503206,1396,1.7041
990,1782079180.7278872,0.503237,1399,1.7078
991,1782079180.7284362,0.503786,1391,1.6980
992,1782079180.7284632,0.503813,1394,1.7017
993,1782079180.7291842,0.504534,1385,1.6907
994,1782079180.7293286,0.504678,1390,1.6968
995,1782079180.7293653,0.504715,1388,1.6943
996,1782079180.730243,0.505593,1383,1.6882
997,1782079180.7308464,0.506196,1389,1.6956
998,1782079180.7308776,0.506227,1383,1.6882
999,1782079180.7309055,0.506255,1384,1.6895
1000,1782079180.7313728,0.506722,1387,1.6931
1001,1782079180.7313967,0.506746,1384,1.6895
1002,1782079180.7339158,0.509265,1391,1.6980
1003,1782079180.7339754,0.509325,1387,1.6931
1004,1782079180.734007,0.509356,1394,1.7017
1005,1782079180.7340286,0.509378,1393,1.7004
1006,1782079180.7340496,0.509399,1389,1.6956
1007,1782079180.7340827,0.509432,1393,1.7004
1008,1782079180.7341034,0.509453,1390,1.6968
1009,1782079180.7341232,0.509473,1389,1.6956
1010,1782079180.7341633,0.509513,1397,1.7053
1011,1782079180.7366674,0.512017,1395,1.7029
1012,1782079180.7367575,0.512107,1396,1.7041
1013,1782079180.7368093,0.512159,1397,1.7053
1014,1782079180.7372735,0.512623,1399,1.7078
1015,1782079180.7373347,0.512684,1394,1.7017
1016,1782079180.7373624,0.512712,1392,1.6992
1017,1782079180.7373989,0.512748,1396,1.7041
1018,1782079180.737424,0.512774,1403,1.7126
1019,1782079180.737452,0.512802,1403,1.7126
1020,1782079180.7374737,0.512823,1402,1.7114
1021,1782079180.7374969,0.512846,1398,1.7065
1022,1782079180.737983,0.513333,1401,1.7102
1023,1782079180.7380354,0.513385,1405,1.7151
1024,1782079180.7380688,0.513418,1407,1.7175
1025,1782079180.7386825,0.514032,1407,1.7175
1026,1782079180.7392569,0.514606,1406,1.7163
1027,1782079180.7398303,0.515180,1409,1.7200
1028,1782079180.7403996,0.515749,1408,1.7188
1029,1782079180.740955,0.516305,1407,1.7175
1030,1782079180.7410293,0.516379,1408,1.7188
1031,1782079180.7438655,0.519215,1409,1.7200
1032,1782079180.7439296,0.519279,1408,1.7188
1033,1782079180.7439597,0.519309,1404,1.7139
1034,1782079180.7439878,0.519337,1409,1.7200
1035,1782079180.7440107,0.519360,1406,1.7163
1036,1782079180.7440293,0.519379,1409,1.7200
1037,1782079180.746747,0.522097,1405,1.7151
1038,1782079180.7468674,0.522217,1405,1.7151
1039,1782079180.7469668,0.522316,1407,1.7175
1040,1782079180.7470198,0.522369,1406,1.7163
1041,1782079180.7470791,0.522429,1401,1.7102
1042,1782079180.7471087,0.522458,1408,1.7188
1043,1782079180.7475886,0.522938,1405,1.7151
1044,1782079180.7485132,0.523863,1407,1.7175
1045,1782079180.7485492,0.523899,1410,1.7212
1046,1782079180.7490819,0.524431,1412,1.7236
1047,1782079180.7495685,0.524918,1410,1.7212
1048,1782079180.750105,0.525455,1413,1.7249
1049,1782079180.7505941,0.525944,1411,1.7224
1050,1782079180.7510476,0.526397,1418,1.7310
1051,1782079180.7515953,0.526945,1413,1.7249
1052,1782079180.7520754,0.527425,1416,1.7285
1053,1782079180.7525945,0.527944,1417,1.7297
1054,1782079180.7530782,0.528428,1412,1.7236
1055,1782079180.7535925,0.528942,1411,1.7224
1056,1782079180.7540703,0.529420,1407,1.7175
1057,1782079180.7545934,0.529943,1403,1.7126
1058,1782079180.755083,0.530433,1401,1.7102
1059,1782079180.7556038,0.530953,1404,1.7139
1060,1782079180.7560828,0.531432,1404,1.7139
1061,1782079180.7570167,0.532366,1398,1.7065
1062,1782079180.7570627,0.532412,1398,1.7065
1063,1782079180.7575903,0.532940,1397,1.7053
1064,1782079180.7580914,0.533441,1395,1.7029
1065,1782079180.7588787,0.534228,1398,1.7065
1066,1782079180.7714872,0.546837,1399,1.7078
1067,1782079180.7716124,0.546962,1394,1.7017
1068,1782079180.7716584,0.547008,1394,1.7017
1069,1782079180.7716873,0.547037,1391,1.6980
1070,1782079180.7722816,0.547631,1395,1.7029
1071,1782079180.7723129,0.547662,1400,1.7090
1072,1782079180.7728362,0.548186,1392,1.6992
1073,1782079180.7728727,0.548222,1398,1.7065
1074,1782079180.77297,0.548320,1396,1.7041
1075,1782079180.7746704,0.550020,1397,1.7053
1076,1782079180.774841,0.550191,1399,1.7078
1077,1782079180.77489,0.550240,1393,1.7004
1078,1782079180.7756295,0.550979,1401,1.7102
1079,1782079180.7783105,0.553660,1394,1.7017
1080,1782079180.7783902,0.553740,1397,1.7053
1081,1782079180.7784119,0.553761,1399,1.7078
1082,1782079180.7785358,0.553885,1399,1.7078
1083,1782079180.7785795,0.553929,1398,1.7065
1084,1782079180.778638,0.553988,1393,1.7004
1085,1782079180.7786732,0.554023,1403,1.7126
1086,1782079180.7787316,0.554081,1398,1.7065
1087,1782079180.7788355,0.554185,1404,1.7139
1088,1782079180.7788732,0.554223,1410,1.7212
1089,1782079180.7789743,0.554324,1414,1.7261
1090,1782079180.7790124,0.554362,1411,1.7224
1091,1782079180.7790406,0.554390,1420,1.7334
1092,1782079180.7790656,0.554415,1420,1.7334
1093,1782079180.7791848,0.554534,1418,1.7310
1094,1782079180.7792833,0.554633,1422,1.7358
1095,1782079180.7793198,0.554669,1419,1.7322
1096,1782079180.77937,0.554720,1418,1.7310
1097,1782079180.779407,0.554757,1417,1.7297
1098,1782079180.7801566,0.555506,1418,1.7310
1099,1782079180.783505,0.558855,1412,1.7236
1100,1782079180.7835915,0.558941,1410,1.7212
1101,1782079180.7836425,0.558992,1412,1.7236
1102,1782079180.784235,0.559585,1411,1.7224
1103,1782079180.784263,0.559613,1405,1.7151
1104,1782079180.7842867,0.559636,1408,1.7188
1105,1782079180.7843285,0.559678,1405,1.7151
1106,1782079180.7843544,0.559704,1405,1.7151
1107,1782079180.7843943,0.559744,1400,1.7090
1108,1782079180.7844217,0.559771,1403,1.7126
1109,1782079180.7844498,0.559799,1398,1.7065
1110,1782079180.7844734,0.559823,1398,1.7065
1111,1782079180.7844963,0.559846,1408,1.7188
1112,1782079180.7849362,0.560286,1395,1.7029
1113,1782079180.78496,0.560310,1400,1.7090
1114,1782079180.7849839,0.560333,1398,1.7065
1115,1782079180.7850134,0.560363,1403,1.7126
1116,1782079180.7850654,0.560415,1398,1.7065
1117,1782079180.7850845,0.560434,1403,1.7126
1118,1782079180.7851195,0.560469,1409,1.7200
1119,1782079180.7856436,0.560993,1402,1.7114
1120,1782079180.7865014,0.561851,1405,1.7151
1121,1782079180.7869906,0.562340,1407,1.7175
1122,1782079180.7874887,0.562838,1400,1.7090
1123,1782079180.789293,0.564643,1403,1.7126
1124,1782079180.7894056,0.564755,1402,1.7114
1125,1782079180.7907972,0.566147,1404,1.7139
1126,1782079180.7908337,0.566183,1406,1.7163
1127,1782079180.7908533,0.566203,1406,1.7163
1128,1782079180.7909293,0.566279,1410,1.7212
1129,1782079180.791014,0.566364,1410,1.7212
1130,1782079180.7911215,0.566471,1411,1.7224
1131,1782079180.7921808,0.567530,1414,1.7261
1132,1782079180.7922986,0.567648,1415,1.7273
1133,1782079180.793779,0.569129,1413,1.7249
1134,1782079180.7938752,0.569225,1405,1.7151
1135,1782079180.7939088,0.569258,1411,1.7224
1136,1782079180.7942715,0.569621,1409,1.7200
1137,1782079180.79468,0.570030,1410,1.7212
1138,1782079180.795941,0.571291,1410,1.7212
1139,1782079180.796063,0.571413,1404,1.7139
1140,1782079180.7961798,0.571529,1405,1.7151
1141,1782079180.7969792,0.572329,1399,1.7078
1142,1782079180.7971818,0.572531,1402,1.7114
1143,1782079180.797831,0.573181,1396,1.7041
1144,1782079180.7981791,0.573529,1397,1.7053
1145,1782079180.7986913,0.574041,1397,1.7053
1146,1782079180.7991703,0.574520,1393,1.7004
1147,1782079180.7996917,0.575041,1392,1.6992
1148,1782079180.8001738,0.575523,1392,1.6992
1149,1782079180.8006916,0.576041,1385,1.6907
1150,1782079180.8011577,0.576507,1395,1.7029
1151,1782079180.8016956,0.577045,1393,1.7004
1152,1782079180.8021748,0.577524,1391,1.6980
1153,1782079180.8026907,0.578040,1388,1.6943
1154,1782079180.8031952,0.578545,1391,1.6980
1155,1782079180.8036811,0.579031,1394,1.7017
1156,1782079180.8042352,0.579585,1389,1.6956
1157,1782079180.8046954,0.580045,1389,1.6956
1158,1782079180.805193,0.580543,1389,1.6956
1159,1782079180.8058033,0.581153,1388,1.6943
1160,1782079180.8062832,0.581633,1389,1.6956
1161,1782079180.8067088,0.582058,1391,1.6980
1162,1782079180.811928,0.587278,1389,1.6956
1163,1782079180.8221302,0.597480,1396,1.7041
1164,1782079180.823627,0.598977,1397,1.7053
1165,1782079180.8241758,0.599525,1398,1.7065
1166,1782079180.8248136,0.600163,1405,1.7151
1167,1782079180.8248892,0.600239,1393,1.7004
1168,1782079180.8254035,0.600753,1402,1.7114
1169,1782079180.825485,0.600835,1409,1.7200
1170,1782079180.8260999,0.601449,1401,1.7102
1171,1782079180.8268375,0.602187,1408,1.7188
1172,1782079180.826872,0.602222,1402,1.7114
1173,1782079180.826907,0.602257,1404,1.7139
1174,1782079180.8269286,0.602278,1407,1.7175
1175,1782079180.828566,0.603916,1404,1.7139
1176,1782079180.8311489,0.606498,1411,1.7224
1177,1782079180.8311908,0.606540,1401,1.7102
1178,1782079180.8312485,0.606598,1403,1.7126
1179,1782079180.831297,0.606647,1400,1.7090
1180,1782079180.8313336,0.606683,1406,1.7163
1181,1782079180.8313565,0.606706,1398,1.7065
1182,1782079180.8313785,0.606728,1400,1.7090
1183,1782079180.8314033,0.606753,1400,1.7090
1184,1782079180.8314455,0.606795,1401,1.7102
1185,1782079180.8314662,0.606816,1396,1.7041
1186,1782079180.8315015,0.606851,1402,1.7114
1187,1782079180.8315222,0.606872,1407,1.7175
1188,1782079180.8315501,0.606900,1402,1.7114
1189,1782079180.831573,0.606923,1400,1.7090
1190,1782079180.831607,0.606957,1401,1.7102
1191,1782079180.8316278,0.606977,1402,1.7114
1192,1782079180.8316503,0.607000,1404,1.7139
1193,1782079180.831698,0.607048,1401,1.7102
1194,1782079180.8317218,0.607071,1405,1.7151
1195,1782079180.8317444,0.607094,1401,1.7102
1196,1782079180.8340487,0.609398,1408,1.7188
1197,1782079180.8340816,0.609431,1403,1.7126
1198,1782079180.8341029,0.609452,1408,1.7188
1199,1782079180.8341281,0.609478,1408,1.7188
1200,1782079180.8345594,0.609909,1408,1.7188
1201,1782079180.8346012,0.609951,1407,1.7175
1202,1782079180.834629,0.609979,1409,1.7200
1203,1782079180.8346648,0.610014,1406,1.7163
1204,1782079180.8346977,0.610047,1413,1.7249
1205,1782079180.8347218,0.610071,1415,1.7273
1206,1782079180.835146,0.610496,1411,1.7224
1207,1782079180.8351824,0.610532,1409,1.7200
1208,1782079180.8352163,0.610566,1409,1.7200
1209,1782079180.8352494,0.610599,1405,1.7151
1210,1782079180.8352714,0.610621,1404,1.7139
1211,1782079180.835291,0.610641,1401,1.7102
1212,1782079180.8353362,0.610686,1397,1.7053
1213,1782079180.8353572,0.610707,1408,1.7188
1214,1782079180.8357706,0.611120,1405,1.7151
1215,1782079180.835799,0.611149,1408,1.7188
1216,1782079180.8358197,0.611169,1413,1.7249
1217,1782079180.8358562,0.611206,1413,1.7249
1218,1782079180.8358803,0.611230,1410,1.7212
1219,1782079180.8359156,0.611265,1417,1.7297
1220,1782079180.8363545,0.611704,1413,1.7249
1221,1782079180.8368542,0.612204,1412,1.7236
1222,1782079180.8373675,0.612717,1413,1.7249
1223,1782079180.8381927,0.613542,1418,1.7310
1224,1782079180.8382633,0.613613,1413,1.7249
1225,1782079180.8388207,0.614170,1418,1.7310
1226,1782079180.8421257,0.617475,1412,1.7236
1227,1782079180.8421826,0.617532,1416,1.7285
1228,1782079180.8422067,0.617556,1412,1.7236
1229,1782079180.8422387,0.617588,1413,1.7249
1230,1782079180.842262,0.617612,1419,1.7322
1231,1782079180.8423104,0.617660,1417,1.7297
1232,1782079180.8423388,0.617688,1414,1.7261
1233,1782079180.8447213,0.620071,1413,1.7249
1234,1782079180.8447917,0.620141,1414,1.7261
1235,1782079180.8448193,0.620169,1414,1.7261
1236,1782079180.8448553,0.620205,1407,1.7175
1237,1782079180.8448799,0.620229,1410,1.7212
1238,1782079180.845252,0.620602,1408,1.7188
1239,1782079180.846243,0.621593,1412,1.7236
1240,1782079180.8463185,0.621668,1406,1.7163
1241,1782079180.8468149,0.622164,1410,1.7212
1242,1782079180.8473523,0.622702,1411,1.7224
1243,1782079180.847829,0.623179,1408,1.7188
1244,1782079180.8483305,0.623680,1411,1.7224
1245,1782079180.8487973,0.624147,1413,1.7249
1246,1782079180.8493502,0.624700,1412,1.7236
1247,1782079180.8498294,0.625179,1415,1.7273
1248,1782079180.850324,0.625674,1412,1.7236
1249,1782079180.8508263,0.626176,1417,1.7297
1250,1782079180.8513136,0.626663,1420,1.7334
1251,1782079180.851833,0.627183,1427,1.7419
1252,1782079180.8523304,0.627680,1426,1.7407
1253,1782079180.8528364,0.628186,1421,1.7346
1254,1782079180.8533406,0.628690,1418,1.7310
1255,1782079180.8538105,0.629160,1420,1.7334
1256,1782079180.854473,0.629823,1412,1.7236
1257,1782079180.8547933,0.630143,1418,1.7310
1258,1782079180.8553326,0.630682,1412,1.7236
1259,1782079180.8557956,0.631145,1416,1.7285
1260,1782079180.8617952,0.637145,1408,1.7188
1261,1782079180.865039,0.640389,1410,1.7212
1262,1782079180.8650837,0.640433,1406,1.7163
1263,1782079180.8651044,0.640454,1407,1.7175
1264,1782079180.865124,0.640474,1409,1.7200
1265,1782079180.8651626,0.640512,1403,1.7126
1266,1782079180.8651812,0.640531,1397,1.7053
1267,1782079180.8652003,0.640550,1399,1.7078
1268,1782079180.865217,0.640567,1393,1.7004
1269,1782079180.8652363,0.640586,1399,1.7078
1270,1782079180.8652651,0.640615,1392,1.6992
1271,1782079180.8652828,0.640632,1394,1.7017
1272,1782079180.8652995,0.640649,1391,1.6980
1273,1782079180.8653233,0.640673,1398,1.7065
1274,1782079180.8653438,0.640693,1391,1.6980
1275,1782079180.865927,0.641277,1397,1.7053
1276,1782079180.866373,0.641723,1394,1.7017
1277,1782079180.8664005,0.641750,1398,1.7065
1278,1782079180.866817,0.642167,1397,1.7053
1279,1782079180.866843,0.642193,1403,1.7126
1280,1782079180.8668637,0.642213,1406,1.7163
1281,1782079180.8673174,0.642667,1404,1.7139
1282,1782079180.867702,0.643052,1411,1.7224
1283,1782079180.8702176,0.645567,1411,1.7224
1284,1782079180.870257,0.645607,1413,1.7249
1285,1782079180.8702955,0.645645,1419,1.7322
1286,1782079180.8703163,0.645666,1411,1.7224
1287,1782079180.870355,0.645705,1422,1.7358
1288,1782079180.8704002,0.645750,1419,1.7322
1289,1782079180.873104,0.648454,1422,1.7358
1290,1782079180.8737533,0.649103,1418,1.7310
1291,1782079180.8738368,0.649186,1420,1.7334
1292,1782079180.8738716,0.649221,1419,1.7322
1293,1782079180.8739269,0.649276,1420,1.7334
1294,1782079180.8739758,0.649325,1418,1.7310
1295,1782079180.8744574,0.649807,1417,1.7297
1296,1782079180.8745353,0.649885,1409,1.7200
1297,1782079180.875108,0.650458,1415,1.7273
1298,1782079180.8756754,0.651025,1409,1.7200
1299,1782079180.876166,0.651516,1412,1.7236
1300,1782079180.8766935,0.652043,1404,1.7139
1301,1782079180.8772314,0.652581,1404,1.7139
1302,1782079180.8777952,0.653145,1395,1.7029
1303,1782079180.877867,0.653217,1391,1.6980
1304,1782079180.879265,0.654615,1387,1.6931
1305,1782079180.8824072,0.657757,1386,1.6919
1306,1782079180.8824515,0.657801,1379,1.6833
1307,1782079180.8824742,0.657824,1381,1.6858
1308,1782079180.882516,0.657866,1386,1.6919
1309,1782079180.882542,0.657892,1385,1.6907
1310,1782079180.8825831,0.657933,1382,1.6870
1311,1782079180.8826058,0.657955,1381,1.6858
1312,1782079180.8826258,0.657975,1385,1.6907
1313,1782079180.882829,0.658179,1383,1.6882
1314,1782079180.8838882,0.659238,1388,1.6943
1315,1782079180.883984,0.659334,1391,1.6980
1316,1782079180.8858223,0.661172,1388,1.6943
1317,1782079180.885871,0.661221,1390,1.6968
1318,1782079180.88589,0.661240,1397,1.7053
1319,1782079180.8859286,0.661278,1396,1.7041
1320,1782079180.8863628,0.661712,1403,1.7126
1321,1782079180.8873322,0.662682,1405,1.7151
1322,1782079180.8873773,0.662727,1405,1.7151
1323,1782079180.887896,0.663246,1408,1.7188
1324,1782079180.8883445,0.663694,1414,1.7261
1325,1782079180.8888261,0.664176,1406,1.7163
1326,1782079180.8893585,0.664708,1411,1.7224
1327,1782079180.889825,0.665175,1409,1.7200
1328,1782079180.8903518,0.665701,1417,1.7297
1329,1782079180.8908389,0.666188,1419,1.7322
1330,1782079180.8913436,0.666693,1421,1.7346
1331,1782079180.891858,0.667208,1417,1.7297
1332,1782079180.8923364,0.667686,1422,1.7358
1333,1782079180.8928642,0.668214,1417,1.7297
1334,1782079180.893346,0.668696,1418,1.7310
1335,1782079180.8938391,0.669189,1419,1.7322
1336,1782079180.89434,0.669690,1415,1.7273
1337,1782079180.89484,0.670190,1417,1.7297
1338,1782079180.8955963,0.670946,1419,1.7322
1339,1782079180.895863,0.671213,1416,1.7285
1340,1782079180.8964336,0.671783,1420,1.7334
1341,1782079180.8969646,0.672314,1412,1.7236
1342,1782079180.9053774,0.680727,1409,1.7200
1343,1782079180.9054484,0.680798,1398,1.7065
1344,1782079180.9054716,0.680821,1402,1.7114
1345,1782079180.9055045,0.680854,1394,1.7017
1346,1782079180.905526,0.680876,1391,1.6980
1347,1782079180.905551,0.680901,1392,1.6992
1348,1782079180.9055736,0.680923,1386,1.6919
1349,1782079180.9061239,0.681473,1385,1.6907
1350,1782079180.9065523,0.681902,1384,1.6895
1351,1782079180.906579,0.681929,1387,1.6931
1352,1782079180.9066052,0.681955,1381,1.6858
1353,1782079180.907019,0.682369,1385,1.6907
1354,1782079180.9074292,0.682779,1386,1.6919
1355,1782079180.9074724,0.682822,1386,1.6919
1356,1782079180.9074907,0.682840,1384,1.6895
1357,1782079180.9075081,0.682858,1386,1.6919
1358,1782079180.9075367,0.682886,1391,1.6980
1359,1782079180.9075582,0.682908,1397,1.7053
1360,1782079180.908058,0.683408,1397,1.7053
1361,1782079180.9080827,0.683432,1399,1.7078
1362,1782079180.910312,0.685662,1398,1.7065
1363,1782079180.9103565,0.685706,1402,1.7114
1364,1782079180.9103823,0.685732,1404,1.7139
1365,1782079180.910402,0.685752,1403,1.7126
1366,1782079180.910421,0.685771,1399,1.7078
1367,1782079180.9104476,0.685797,1410,1.7212
1368,1782079180.910491,0.685841,1405,1.7151
1369,1782079180.914043,0.689393,1406,1.7163
1370,1782079180.914239,0.689589,1410,1.7212
1371,1782079180.914287,0.689637,1405,1.7151
1372,1782079180.9143105,0.689660,1407,1.7175
1373,1782079180.914342,0.689692,1405,1.7151
1374,1782079180.914951,0.690301,1409,1.7200
1375,1782079180.9149837,0.690333,1406,1.7163
1376,1782079180.9150057,0.690355,1404,1.7139
1377,1782079180.9150314,0.690381,1404,1.7139
1378,1782079180.915592,0.690942,1408,1.7188
1379,1782079180.9161377,0.691487,1400,1.7090
1380,1782079180.916637,0.691987,1396,1.7041
1381,1782079180.91718,0.692530,1401,1.7102
1382,1782079180.9176564,0.693006,1401,1.7102
1383,1782079180.9181757,0.693525,1402,1.7114
1384,1782079180.9190903,0.694440,1398,1.7065
1385,1782079180.919148,0.694498,1402,1.7114
1386,1782079180.9200795,0.695429,1404,1.7139
1387,1782079180.9201372,0.695487,1403,1.7126
1388,1782079180.9224703,0.697820,1402,1.7114
1389,1782079180.9225285,0.697878,1404,1.7139
1390,1782079180.9225593,0.697909,1403,1.7126
1391,1782079180.9226077,0.697957,1407,1.7175
1392,1782079180.9226367,0.697986,1407,1.7175
1393,1782079180.922896,0.698246,1406,1.7163
1394,1782079180.9236224,0.698972,1410,1.7212
1395,1782079180.9249694,0.700319,1410,1.7212
1396,1782079180.9250026,0.700352,1411,1.7224
1397,1782079180.925043,0.700393,1415,1.7273
1398,1782079180.925386,0.700736,1413,1.7249
1399,1782079180.9260483,0.701398,1418,1.7310
1400,1782079180.926507,0.701857,1418,1.7310
1401,1782079180.92687,0.702220,1417,1.7297
1402,1782079180.9274642,0.702814,1421,1.7346
1403,1782079180.9278927,0.703242,1419,1.7322
1404,1782079180.928493,0.703843,1422,1.7358
1405,1782079180.9288874,0.704237,1419,1.7322
1406,1782079180.9294827,0.704832,1422,1.7358
1407,1782079180.929923,0.705273,1421,1.7346
1408,1782079180.9305484,0.705898,1425,1.7395
1409,1782079180.930968,0.706318,1420,1.7334
1410,1782079180.9315546,0.706904,1423,1.7371
1411,1782079180.9320087,0.707358,1418,1.7310
1412,1782079180.9325843,0.707934,1424,1.7383
1413,1782079180.9329374,0.708287,1418,1.7310
1414,1782079180.9335341,0.708884,1417,1.7297
1415,1782079180.9339666,0.709316,1413,1.7249
1416,1782079180.9345865,0.709936,1414,1.7261
1417,1782079180.9349775,0.710327,1413,1.7249
1418,1782079180.9355185,0.710868,1408,1.7188
1419,1782079180.9362352,0.711585,1410,1.7212
1420,1782079180.936505,0.711855,1402,1.7114
1421,1782079180.9370115,0.712361,1403,1.7126
1422,1782079180.9440875,0.719437,1399,1.7078
1423,1782079180.94416,0.719510,1400,1.7090
1424,1782079180.945313,0.720663,1399,1.7078
1425,1782079180.9453788,0.720728,1402,1.7114
1426,1782079180.9454188,0.720768,1395,1.7029
1427,1782079180.9454849,0.720834,1401,1.7102
1428,1782079180.946708,0.722058,1400,1.7090
1429,1782079180.9474998,0.722849,1398,1.7065
1430,1782079180.9485543,0.723904,1397,1.7053
1431,1782079180.9491382,0.724488,1401,1.7102
1432,1782079180.9492073,0.724557,1398,1.7065
1433,1782079180.9518704,0.727220,1397,1.7053
1434,1782079180.9519305,0.727280,1394,1.7017
1435,1782079180.951957,0.727307,1403,1.7126
1436,1782079180.9519997,0.727349,1395,1.7029
1437,1782079180.9520326,0.727382,1400,1.7090
1438,1782079180.9520736,0.727423,1395,1.7029
1439,1782079180.9521,0.727450,1398,1.7065
1440,1782079180.9521327,0.727482,1391,1.6980
1441,1782079180.9521594,0.727509,1398,1.7065
1442,1782079180.9522004,0.727550,1394,1.7017
1443,1782079180.9522257,0.727575,1397,1.7053
1444,1782079180.9522705,0.727620,1391,1.6980
1445,1782079180.9523067,0.727656,1398,1.7065
1446,1782079180.9523323,0.727682,1400,1.7090
1447,1782079180.9523554,0.727705,1398,1.7065
1448,1782079180.9523902,0.727740,1398,1.7065
1449,1782079180.952414,0.727764,1400,1.7090
1450,1782079180.9524622,0.727812,1396,1.7041
1451,1782079180.9524844,0.727834,1399,1.7078
1452,1782079180.9548407,0.730190,1394,1.7017
1453,1782079180.9548724,0.730222,1398,1.7065
1454,1782079180.9553692,0.730719,1392,1.6992
1455,1782079180.955398,0.730748,1398,1.7065
1456,1782079180.9554186,0.730768,1391,1.6980
1457,1782079180.9554386,0.730788,1396,1.7041
1458,1782079180.9554815,0.730831,1392,1.6992
1459,1782079180.9559972,0.731347,1398,1.7065
1460,1782079180.956584,0.731934,1387,1.6931
1461,1782079180.9572003,0.732550,1397,1.7053
1462,1782079180.957758,0.733108,1393,1.7004
1463,1782079180.9583426,0.733692,1395,1.7029
1464,1782079180.9584577,0.733807,1395,1.7029
1465,1782079180.9589853,0.734335,1387,1.6931
1466,1782079180.959569,0.734919,1390,1.6968
1467,1782079180.9618375,0.737187,1387,1.6931
1468,1782079180.9628673,0.738217,1391,1.6980
1469,1782079180.964528,0.739878,1386,1.6919
1470,1782079180.964599,0.739949,1392,1.6992
1471,1782079180.9646645,0.740014,1388,1.6943
1472,1782079180.9647036,0.740053,1391,1.6980
1473,1782079180.9647348,0.740084,1389,1.6956
1474,1782079180.964772,0.740122,1389,1.6956
1475,1782079180.9648023,0.740152,1395,1.7029
1476,1782079180.9648542,0.740204,1398,1.7065
1477,1782079180.965019,0.740369,1399,1.7078
1478,1782079180.9660716,0.741421,1399,1.7078
1479,1782079180.9676378,0.742987,1401,1.7102
1480,1782079180.9677215,0.743071,1407,1.7175
1481,1782079180.967774,0.743124,1408,1.7188
1482,1782079180.9678304,0.743180,1408,1.7188
1483,1782079180.968042,0.743392,1413,1.7249
1484,1782079180.9689822,0.744332,1411,1.7224
1485,1782079180.9690566,0.744406,1416,1.7285
1486,1782079180.9695702,0.744920,1414,1.7261
1487,1782079180.9700863,0.745436,1409,1.7200
1488,1782079180.9705935,0.745943,1412,1.7236
1489,1782079180.9710944,0.746444,1408,1.7188
1490,1782079180.971594,0.746944,1405,1.7151
1491,1782079180.9720922,0.747442,1404,1.7139
1492,1782079180.9725683,0.747918,1400,1.7090
1493,1782079180.9730945,0.748444,1397,1.7053
1494,1782079180.9735932,0.748943,1391,1.6980
1495,1782079180.9741,0.749450,1386,1.6919
1496,1782079180.9746013,0.749951,1384,1.6895
1497,1782079180.9750926,0.750442,1378,1.6821
1498,1782079180.9754887,0.750838,1381,1.6858
1499,1782079180.97601,0.751360,1372,1.6748
1500,1782079180.9766808,0.752030,1371,1.6736
1501,1782079180.9769828,0.752332,1368,1.6699
1502,1782079180.9774837,0.752833,1372,1.6748
1503,1782079180.9786322,0.753982,1374,1.6772
1504,1782079180.9870749,0.762424,1373,1.6760
1505,1782079180.9871433,0.762493,1374,1.6772
1506,1782079180.989425,0.764775,1375,1.6785
1507,1782079180.9894545,0.764804,1380,1.6846
1508,1782079180.9894803,0.764830,1378,1.6821
1509,1782079180.9895005,0.764850,1387,1.6931
1510,1782079180.9895241,0.764874,1391,1.6980
1511,1782079180.9901247,0.765474,1396,1.7041
1512,1782079180.9906855,0.766035,1399,1.7078
1513,1782079180.9907162,0.766066,1403,1.7126
1514,1782079180.9907374,0.766087,1406,1.7163
1515,1782079180.9912918,0.766641,1406,1.7163
1516,1782079180.9917688,0.767118,1408,1.7188
1517,1782079180.991797,0.767147,1411,1.7224
1518,1782079180.9918272,0.767177,1413,1.7249
1519,1782079180.9922414,0.767591,1415,1.7273
1520,1782079180.994571,0.769921,1417,1.7297
1521,1782079180.9946191,0.769969,1421,1.7346
1522,1782079180.9946432,0.769993,1416,1.7285
1523,1782079180.9946678,0.770017,1416,1.7285
1524,1782079180.9947104,0.770060,1419,1.7322
1525,1782079180.9947398,0.770089,1422,1.7358
1526,1782079180.9947834,0.770133,1419,1.7322
1527,1782079180.994827,0.770177,1420,1.7334
1528,1782079180.9948611,0.770211,1418,1.7310
1529,1782079180.994883,0.770233,1420,1.7334
1530,1782079180.99491,0.770260,1424,1.7383
1531,1782079180.9951377,0.770487,1414,1.7261
1532,1782079180.9952154,0.770565,1421,1.7346
1533,1782079180.9952815,0.770631,1413,1.7249
1534,1782079180.9990559,0.774405,1412,1.7236
1535,1782079180.9991772,0.774527,1408,1.7188
1536,1782079180.9992008,0.774550,1408,1.7188
1537,1782079180.9992197,0.774569,1400,1.7090
1538,1782079180.9992793,0.774629,1402,1.7114
1539,1782079180.9993045,0.774654,1394,1.7017
1540,1782079180.9993308,0.774680,1394,1.7017
1541,1782079181.000786,0.776136,1393,1.7004
1542,1782079181.0008202,0.776170,1386,1.6919
1543,1782079181.0008395,0.776189,1387,1.6931
1544,1782079181.0008566,0.776206,1382,1.6870
1545,1782079181.0008795,0.776229,1381,1.6858
1546,1782079181.0009305,0.776280,1383,1.6882
1547,1782079181.0014794,0.776829,1382,1.6870
1548,1782079181.0015426,0.776892,1389,1.6956
1549,1782079181.0015876,0.776937,1382,1.6870
1550,1782079181.0016384,0.776988,1390,1.6968
1551,1782079181.002271,0.777621,1383,1.6882
1552,1782079181.002908,0.778258,1389,1.6956
1553,1782079181.0035734,0.778923,1383,1.6882
1554,1782079181.0036228,0.778972,1393,1.7004
1555,1782079181.004363,0.779713,1391,1.6980
1556,1782079181.0051334,0.780483,1395,1.7029
1557,1782079181.0051901,0.780540,1398,1.7065
1558,1782079181.0090728,0.784422,1403,1.7126
1559,1782079181.0091314,0.784481,1405,1.7151
1560,1782079181.009163,0.784513,1411,1.7224
1561,1782079181.00919,0.784540,1406,1.7163
1562,1782079181.0092142,0.784564,1413,1.7249
1563,1782079181.0093365,0.784686,1414,1.7261
1564,1782079181.0093906,0.784740,1417,1.7297
1565,1782079181.0094373,0.784787,1416,1.7285
1566,1782079181.0095823,0.784932,1417,1.7297
1567,1782079181.0106497,0.785999,1419,1.7322
1568,1782079181.0107164,0.786066,1413,1.7249
1569,1782079181.0132308,0.788580,1414,1.7261
1570,1782079181.0133417,0.788691,1415,1.7273
1571,1782079181.013381,0.788731,1417,1.7297
1572,1782079181.0134099,0.788759,1408,1.7188
1573,1782079181.013441,0.788791,1410,1.7212
1574,1782079181.013618,0.788968,1405,1.7151
1575,1782079181.0141108,0.789460,1404,1.7139
1576,1782079181.0146017,0.789951,1401,1.7102
1577,1782079181.0157404,0.791090,1400,1.7090
1578,1782079181.0158055,0.791155,1395,1.7029
1579,1782079181.0161467,0.791496,1396,1.7041
1580,1782079181.016637,0.791987,1395,1.7029
1581,1782079181.0171564,0.792506,1390,1.6968
1582,1782079181.0176284,0.792978,1391,1.6980
1583,1782079181.0181377,0.793487,1391,1.6980
1584,1782079181.018627,0.793977,1387,1.6931
1585,1782079181.019142,0.794492,1387,1.6931
1586,1782079181.0196338,0.794983,1391,1.6980
1587,1782079181.0201478,0.795497,1387,1.6931
1588,1782079181.0206594,0.796009,1386,1.6919
1589,1782079181.0211465,0.796496,1390,1.6968
1590,1782079181.021652,0.797002,1386,1.6919
1591,1782079181.022129,0.797479,1385,1.6907
1592,1782079181.0226498,0.797999,1379,1.6833
1593,1782079181.023134,0.798484,1380,1.6846
1594,1782079181.0236218,0.798971,1375,1.6785
1595,1782079181.024141,0.799491,1373,1.6760
1596,1782079181.024627,0.799977,1376,1.6797
1597,1782079181.0252979,0.800647,1382,1.6870
1598,1782079181.0256815,0.801031,1378,1.6821
1599,1782079181.0262127,0.801562,1382,1.6870
1600,1782079181.0266335,0.801983,1387,1.6931
1601,1782079181.040484,0.815834,1385,1.6907
1602,1782079181.040613,0.815963,1390,1.6968
1603,1782079181.0406554,0.816005,1393,1.7004
1604,1782079181.0421977,0.817547,1387,1.6931
1605,1782079181.0422616,0.817611,1393,1.7004
1606,1782079181.0430102,0.818360,1395,1.7029
1607,1782079181.0441718,0.819521,1394,1.7017
1608,1782079181.0442798,0.819629,1389,1.6956
1609,1782079181.045214,0.820564,1394,1.7017
1610,1782079181.045276,0.820626,1401,1.7102
1611,1782079181.0496128,0.824962,1393,1.7004
1612,1782079181.0497448,0.825094,1400,1.7090
1613,1782079181.0497954,0.825145,1399,1.7078
1614,1782079181.0498586,0.825208,1397,1.7053
1615,1782079181.0498977,0.825247,1392,1.6992
1616,1782079181.0499284,0.825278,1395,1.7029
1617,1782079181.0499709,0.825320,1398,1.7065
1618,1782079181.0500052,0.825355,1396,1.7041
1619,1782079181.0500364,0.825386,1394,1.7017
1620,1782079181.0500913,0.825441,1393,1.7004
1621,1782079181.050145,0.825495,1389,1.6956
1622,1782079181.0501776,0.825527,1393,1.7004
1623,1782079181.050215,0.825565,1389,1.6956
1624,1782079181.0502481,0.825598,1391,1.6980
1625,1782079181.0502882,0.825638,1394,1.7017
1626,1782079181.050319,0.825669,1390,1.6968
1627,1782079181.0503504,0.825700,1390,1.6968
1628,1782079181.050383,0.825733,1382,1.6870
1629,1782079181.0504322,0.825782,1384,1.6895
1630,1782079181.0504699,0.825819,1385,1.6907
1631,1782079181.0505037,0.825853,1384,1.6895
1632,1782079181.0531683,0.828518,1384,1.6895
1633,1782079181.0532098,0.828559,1380,1.6846
1634,1782079181.0532477,0.828597,1380,1.6846
1635,1782079181.0538125,0.829162,1381,1.6858
1636,1782079181.0538428,0.829192,1384,1.6895
1637,1782079181.053868,0.829218,1381,1.6858
1638,1782079181.0539157,0.829265,1387,1.6931
1639,1782079181.0539827,0.829332,1386,1.6919
1640,1782079181.054013,0.829363,1388,1.6943
1641,1782079181.0541427,0.829492,1385,1.6907
1642,1782079181.0541725,0.829522,1390,1.6968
1643,1782079181.0542357,0.829585,1394,1.7017
1644,1782079181.054868,0.830218,1398,1.7065
1645,1782079181.0549042,0.830254,1396,1.7041
1646,1782079181.0549562,0.830306,1399,1.7078
1647,1782079181.054992,0.830342,1396,1.7041
1648,1782079181.0550423,0.830392,1398,1.7065
1649,1782079181.0550754,0.830425,1391,1.6980
1650,1782079181.0551226,0.830472,1398,1.7065
1651,1782079181.0551665,0.830516,1395,1.7029
1652,1782079181.0557277,0.831077,1397,1.7053
1653,1782079181.0557625,0.831112,1392,1.6992
1654,1782079181.055812,0.831161,1389,1.6956
1655,1782079181.0558476,0.831197,1387,1.6931
1656,1782079181.0558808,0.831230,1384,1.6895
1657,1782079181.0559347,0.831284,1385,1.6907
1658,1782079181.0559716,0.831321,1385,1.6907
1659,1782079181.056551,0.831901,1380,1.6846
1660,1782079181.0566332,0.831983,1385,1.6907
1661,1782079181.0572438,0.832593,1383,1.6882
1662,1782079181.0580344,0.833384,1376,1.6797
1663,1782079181.058162,0.833512,1375,1.6785
1664,1782079181.059245,0.834595,1379,1.6833
1665,1782079181.0593047,0.834654,1375,1.6785
1666,1782079181.06026,0.835610,1371,1.6736
1667,1782079181.0603008,0.835650,1377,1.6809
1668,1782079181.0627532,0.838103,1371,1.6736
1669,1782079181.0674407,0.842790,1375,1.6785
1670,1782079181.0675075,0.842857,1374,1.6772
1671,1782079181.0676184,0.842968,1373,1.6760
1672,1782079181.0678055,0.843155,1369,1.6711
1673,1782079181.0678816,0.843231,1368,1.6699
1674,1782079181.0679076,0.843257,1366,1.6675
1675,1782079181.0682397,0.843589,1370,1.6724
1676,1782079181.0683126,0.843662,1374,1.6772
1677,1782079181.0683467,0.843696,1377,1.6809
1678,1782079181.0685732,0.843923,1378,1.6821
1679,1782079181.0686164,0.843966,1388,1.6943
1680,1782079181.0686917,0.844041,1388,1.6943
1681,1782079181.0687232,0.844073,1395,1.7029
1682,1782079181.068775,0.844125,1395,1.7029
1683,1782079181.0688355,0.844185,1395,1.7029
1684,1782079181.0688837,0.844233,1401,1.7102
1685,1782079181.0699391,0.845289,1401,1.7102
1686,1782079181.0701573,0.845507,1399,1.7078
1687,1782079181.0703452,0.845695,1406,1.7163
1688,1782079181.072302,0.847652,1401,1.7102
1689,1782079181.0723672,0.847717,1397,1.7053
1690,1782079181.0724509,0.847800,1400,1.7090
1691,1782079181.0724835,0.847833,1398,1.7065
1692,1782079181.0727127,0.848062,1394,1.7017
1693,1782079181.0732403,0.848590,1391,1.6980
1694,1782079181.0743065,0.849656,1389,1.6956
1695,1782079181.0744202,0.849770,1390,1.6968
1696,1782079181.0746584,0.850008,1384,1.6895
1697,1782079181.075367,0.850717,1379,1.6833
1698,1782079181.0756662,0.851016,1381,1.6858
1699,1782079181.0761812,0.851531,1381,1.6858
1700,1782079181.076671,0.852021,1376,1.6797
1701,1782079181.077167,0.852517,1374,1.6772
1702,1782079181.0776858,0.853035,1372,1.6748
1703,1782079181.0781887,0.853538,1381,1.6858
1704,1782079181.0787206,0.854070,1375,1.6785
1705,1782079181.0791903,0.854540,1376,1.6797
1706,1782079181.0797188,0.855068,1374,1.6772
1707,1782079181.0801842,0.855534,1375,1.6785
1708,1782079181.0807438,0.856093,1371,1.6736
1709,1782079181.0812619,0.856611,1375,1.6785
1710,1782079181.0817695,0.857119,1367,1.6687
1711,1782079181.0822523,0.857602,1373,1.6760
1712,1782079181.0827608,0.858110,1373,1.6760
1713,1782079181.08327,0.858620,1370,1.6724
1714,1782079181.0837615,0.859111,1367,1.6687
1715,1782079181.084253,0.859603,1367,1.6687
1716,1782079181.0847569,0.860106,1365,1.6663
1717,1782079181.0859401,0.861290,1363,1.6638
1718,1782079181.0859988,0.861348,1357,1.6565
1719,1782079181.0862,0.861550,1352,1.6504
1720,1782079181.086724,0.862074,1353,1.6516
1721,1782079181.0872357,0.862585,1354,1.6528
1722,1782079181.0923853,0.867735,1352,1.6504
1723,1782079181.0925221,0.867872,1347,1.6443
1724,1782079181.0987723,0.874122,1343,1.6394
1725,1782079181.098902,0.874252,1344,1.6406
1726,1782079181.1018417,0.877191,1347,1.6443
1727,1782079181.1018913,0.877241,1344,1.6406
1728,1782079181.1019263,0.877276,1350,1.6479
1729,1782079181.1019592,0.877309,1345,1.6418
1730,1782079181.1019902,0.877340,1336,1.6309
1731,1782079181.1025476,0.877897,1334,1.6284
1732,1782079181.1025817,0.877931,1332,1.6260
1733,1782079181.102612,0.877962,1331,1.6248
1734,1782079181.1026497,0.877999,1322,1.6138
1735,1782079181.1026797,0.878029,1325,1.6174
1736,1782079181.1027484,0.878098,1320,1.6113
1737,1782079181.1027746,0.878124,1321,1.6125
1738,1782079181.1028006,0.878150,1319,1.6101
1739,1782079181.1033797,0.878729,1322,1.6138
1740,1782079181.103415,0.878765,1323,1.6150
1741,1782079181.1034436,0.878793,1327,1.6199
1742,1782079181.1034784,0.878828,1331,1.6248
1743,1782079181.1041477,0.879497,1338,1.6333
1744,1782079181.104211,0.879561,1347,1.6443
1745,1782079181.104254,0.879604,1352,1.6504
1746,1782079181.1050327,0.880382,1366,1.6675
1747,1782079181.1050766,0.880426,1363,1.6638
1748,1782079181.1057572,0.881107,1372,1.6748
1749,1782079181.105802,0.881152,1384,1.6895
1750,1782079181.105841,0.881191,1387,1.6931
1751,1782079181.1095214,0.884871,1393,1.7004
1752,1782079181.109574,0.884924,1397,1.7053
1753,1782079181.1096075,0.884957,1404,1.7139
1754,1782079181.1096647,0.885014,1403,1.7126
1755,1782079181.109724,0.885074,1410,1.7212
1756,1782079181.109761,0.885111,1411,1.7224
1757,1782079181.1098156,0.885165,1408,1.7188
1758,1782079181.1098506,0.885200,1411,1.7224
1759,1782079181.1099072,0.885257,1412,1.7236
1760,1782079181.1099424,0.885292,1416,1.7285
1761,1782079181.1099727,0.885322,1416,1.7285
1762,1782079181.1100147,0.885364,1420,1.7334
1763,1782079181.110048,0.885398,1414,1.7261
1764,1782079181.1101015,0.885451,1418,1.7310
1765,1782079181.1101363,0.885486,1412,1.7236
1766,1782079181.1101708,0.885520,1418,1.7310
1767,1782079181.1139371,0.889287,1417,1.7297
1768,1782079181.1151915,0.890541,1415,1.7273
1769,1782079181.1152754,0.890625,1409,1.7200
1770,1782079181.1153555,0.890705,1408,1.7188
1771,1782079181.1154296,0.890779,1400,1.7090
1772,1782079181.115467,0.890817,1398,1.7065
1773,1782079181.115533,0.890883,1391,1.6980
1774,1782079181.1155708,0.890920,1381,1.6858
1775,1782079181.1162565,0.891606,1373,1.6760
1776,1782079181.116295,0.891645,1368,1.6699
1777,1782079181.1163485,0.891698,1357,1.6565
1778,1782079181.1163828,0.891732,1351,1.6492
1779,1782079181.116434,0.891784,1334,1.6284
1780,1782079181.1170166,0.892366,1324,1.6162
1781,1782079181.1176612,0.893011,1307,1.5955
1782,1782079181.1177447,0.893094,1299,1.5857
1783,1782079181.1183145,0.893664,1284,1.5674
1784,1782079181.118937,0.894287,1276,1.5576
1785,1782079181.1196089,0.894958,1261,1.5393
1786,1782079181.1197815,0.895131,1260,1.5381
1787,1782079181.12052,0.895870,1250,1.5259
1788,1782079181.12377,0.899120,1252,1.5283
1789,1782079181.1238637,0.899213,1247,1.5222
1790,1782079181.123901,0.899251,1258,1.5356
1791,1782079181.1239254,0.899275,1257,1.5344
1792,1782079181.1239533,0.899303,1264,1.5430
1793,1782079181.123979,0.899329,1264,1.5430
1794,1782079181.1240222,0.899372,1269,1.5491
1795,1782079181.1242933,0.899643,1274,1.5552
1796,1782079181.1251783,0.900528,1284,1.5674
1797,1782079181.1268303,0.902180,1293,1.5784
1798,1782079181.1268716,0.902221,1297,1.5833
1799,1782079181.1269,0.902250,1293,1.5784
1800,1782079181.1269472,0.902297,1300,1.5869
1801,1782079181.1272876,0.902637,1303,1.5906
1802,1782079181.127974,0.903324,1309,1.5979
1803,1782079181.1286175,0.903967,1302,1.5894
1804,1782079181.1287844,0.904134,1315,1.6052
1805,1782079181.12928,0.904630,1320,1.6113
1806,1782079181.1298463,0.905196,1332,1.6260
1807,1782079181.1303086,0.905658,1330,1.6235
1808,1782079181.1307962,0.906146,1340,1.6357
1809,1782079181.1313076,0.906657,1344,1.6406
1810,1782079181.1317766,0.907126,1346,1.6431
1811,1782079181.1322908,0.907640,1347,1.6443
1812,1782079181.132781,0.908131,1350,1.6479
1813,1782079181.133349,0.908699,1346,1.6431
1814,1782079181.1338644,0.909214,1349,1.6467
1815,1782079181.134356,0.909706,1351,1.6492
1816,1782079181.134866,0.910216,1352,1.6504
1817,1782079181.13536,0.910710,1351,1.6492
1818,1782079181.1357892,0.911139,1352,1.6504
1819,1782079181.136257,0.911607,1345,1.6418
1820,1782079181.1367884,0.912138,1338,1.6333
1821,1782079181.13749,0.912840,1337,1.6321
1822,1782079181.1377685,0.913118,1329,1.6223
1823,1782079181.1382933,0.913643,1330,1.6235
1824,1782079181.141348,0.916698,1319,1.6101
1825,1782079181.1485224,0.923872,1309,1.5979
1826,1782079181.148575,0.923925,1301,1.5881
1827,1782079181.1486344,0.923984,1294,1.5796
1828,1782079181.1486714,0.924021,1287,1.5710
1829,1782079181.1486971,0.924047,1277,1.5588
1830,1782079181.1492567,0.924606,1266,1.5454
1831,1782079181.1492875,0.924637,1268,1.5479
1832,1782079181.1497254,0.925075,1265,1.5442
1833,1782079181.149754,0.925104,1261,1.5393
1834,1782079181.149793,0.925143,1265,1.5442
1835,1782079181.1502156,0.925565,1259,1.5369
1836,1782079181.1502411,0.925591,1263,1.5417
1837,1782079181.1506555,0.926005,1270,1.5503
1838,1782079181.150682,0.926032,1272,1.5527
1839,1782079181.1507053,0.926055,1276,1.5576
1840,1782079181.1530573,0.928407,1273,1.5540
1841,1782079181.1530955,0.928445,1275,1.5564
1842,1782079181.1531172,0.928467,1273,1.5540
1843,1782079181.1531458,0.928495,1267,1.5466
1844,1782079181.153171,0.928521,1257,1.5344
1845,1782079181.153209,0.928559,1250,1.5259
1846,1782079181.153236,0.928586,1240,1.5137
1847,1782079181.1532848,0.928634,1228,1.4990
1848,1782079181.1533108,0.928660,1228,1.4990
1849,1782079181.1533303,0.928680,1214,1.4819
1850,1782079181.1533492,0.928699,1207,1.4734
1851,1782079181.153377,0.928727,1205,1.4709
1852,1782079181.1534207,0.928770,1205,1.4709
1853,1782079181.1534464,0.928796,1200,1.4648
1854,1782079181.1555946,0.930944,1203,1.4685
1855,1782079181.1556304,0.930980,1197,1.4612
1856,1782079181.1556616,0.931011,1196,1.4600
1857,1782079181.1557074,0.931057,1186,1.4478
1858,1782079181.1561294,0.931479,1170,1.4282
1859,1782079181.156609,0.931959,1155,1.4099
1860,1782079181.1571865,0.932536,1128,1.3770
1861,1782079181.1576674,0.933017,1094,1.3354
1862,1782079181.1581836,0.933533,1061,1.2952
1863,1782079181.1582367,0.933586,1023,1.2488
1864,1782079181.1591394,0.934489,985,1.2024
1865,1782079181.159605,0.934955,962,1.1743
1866,1782079181.1624436,0.937793,949,1.1584
1867,1782079181.162664,0.938014,949,1.1584
1868,1782079181.162742,0.938092,954,1.1646
1869,1782079181.1628125,0.938162,964,1.1768
1870,1782079181.1630104,0.938360,977,1.1926
1871,1782079181.1630793,0.938429,1001,1.2219
1872,1782079181.1632304,0.938580,1017,1.2415
1873,1782079181.1633804,0.938730,1033,1.2610
1874,1782079181.164636,0.939986,1041,1.2708
1875,1782079181.164702,0.940052,1056,1.2891
1876,1782079181.1649344,0.940284,1067,1.3025
1877,1782079181.166874,0.942224,1068,1.3037
1878,1782079181.1669877,0.942337,1076,1.3135
1879,1782079181.1670377,0.942387,1088,1.3281
1880,1782079181.167081,0.942431,1096,1.3379
1881,1782079181.1673377,0.942687,1111,1.3562
1882,1782079181.168499,0.943849,1124,1.3721
1883,1782079181.1685548,0.943904,1144,1.3965
1884,1782079181.1688724,0.944222,1168,1.4258
1885,1782079181.1694562,0.944806,1192,1.4551
1886,1782079181.1698694,0.945219,1214,1.4819
1887,1782079181.1703057,0.945655,1248,1.5234
1888,1782079181.1708386,0.946188,1265,1.5442
1889,1782079181.171367,0.946717,1286,1.5698
1890,1782079181.1718776,0.947227,1311,1.6003
1891,1782079181.1723745,0.947724,1329,1.6223
1892,1782079181.1728523,0.948202,1333,1.6272
1893,1782079181.1733775,0.948727,1339,1.6345
1894,1782079181.1738791,0.949229,1340,1.6357
1895,1782079181.174371,0.949721,1339,1.6345
1896,1782079181.174872,0.950222,1345,1.6418
1897,1782079181.1753662,0.950716,1346,1.6431
1898,1782079181.175853,0.951203,1355,1.6541
1899,1782079181.1763728,0.951722,1355,1.6541
1900,1782079181.1768577,0.952207,1369,1.6711
1901,1782079181.1774702,0.952820,1376,1.6797
1902,1782079181.177886,0.953236,1382,1.6870
1903,1782079181.1790693,0.954419,1385,1.6907
1904,1782079181.1792374,0.954587,1388,1.6943
1905,1782079181.1793802,0.954730,1394,1.7017
1906,1782079181.1798975,0.955247,1399,1.7078
1907,1782079181.1803825,0.955732,1387,1.6931
1908,1782079181.180878,0.956228,1375,1.6785
1909,1782079181.1820836,0.957433,1366,1.6675
1910,1782079181.1854265,0.960776,1343,1.6394
1911,1782079181.1924224,0.967772,1340,1.6357
1912,1782079181.1924787,0.967828,1320,1.6113
1913,1782079181.1925163,0.967866,1323,1.6150
1914,1782079181.1932106,0.968560,1318,1.6089
1915,1782079181.1932511,0.968601,1322,1.6138
1916,1782079181.193862,0.969212,1335,1.6296
1917,1782079181.1939101,0.969260,1352,1.6504
1918,1782079181.1945288,0.969878,1375,1.6785
1919,1782079181.1945634,0.969913,1395,1.7029
1920,1782079181.1945975,0.969947,1432,1.7480
1921,1782079181.1955962,0.970946,1452,1.7725
1922,1782079181.1958263,0.971176,1480,1.8066
1923,1782079181.1959243,0.971274,1501,1.8323
1924,1782079181.1960878,0.971437,1521,1.8567
1925,1782079181.1961505,0.971500,1536,1.8750
1926,1782079181.1962051,0.971555,1540,1.8799
1927,1782079181.1970022,0.972352,1533,1.8713
1928,1782079181.1998491,0.975199,1512,1.8457
1929,1782079181.1999235,0.975273,1498,1.8286
1930,1782079181.1999733,0.975323,1482,1.8091
1931,1782079181.2000146,0.975364,1466,1.7896
1932,1782079181.2000456,0.975395,1453,1.7737
1933,1782079181.2000978,0.975447,1440,1.7578
1934,1782079181.2001512,0.975501,1428,1.7432
1935,1782079181.200188,0.975538,1418,1.7310
1936,1782079181.2002263,0.975576,1406,1.7163
1937,1782079181.2002578,0.975607,1391,1.6980
1938,1782079181.200305,0.975655,1378,1.6821
1939,1782079181.2003374,0.975687,1362,1.6626
1940,1782079181.2025104,0.977860,1339,1.6345
1941,1782079181.2025461,0.977896,1320,1.6113
1942,1782079181.2029638,0.978313,1310,1.5991
1943,1782079181.2029953,0.978345,1305,1.5930
1944,1782079181.2030487,0.978398,1296,1.5820
1945,1782079181.2030902,0.978440,1295,1.5808
1946,1782079181.2031176,0.978467,1292,1.5771
1947,1782079181.203142,0.978492,1300,1.5869
1948,1782079181.2031724,0.978522,1297,1.5833
1949,1782079181.203197,0.978547,1301,1.5881
1950,1782079181.2036006,0.978950,1298,1.5845
1951,1782079181.2036312,0.978981,1298,1.5845
1952,1782079181.203671,0.979021,1290,1.5747
1953,1782079181.2037003,0.979050,1299,1.5857
1954,1782079181.2041621,0.979512,1292,1.5771
1955,1782079181.204643,0.979993,1296,1.5820
1956,1782079181.2051175,0.980467,1300,1.5869
1957,1782079181.2056618,0.981011,1303,1.5906
1958,1782079181.206134,0.981484,1304,1.5918
1959,1782079181.2066362,0.981986,1301,1.5881
1960,1782079181.209236,0.984586,1298,1.5845
1961,1782079181.209269,0.984619,1299,1.5857
1962,1782079181.2093081,0.984658,1293,1.5784
1963,1782079181.2093482,0.984698,1301,1.5881
1964,1782079181.2093735,0.984723,1302,1.5894
1965,1782079181.2094457,0.984795,1323,1.6150
1966,1782079181.2104561,0.985806,1334,1.6284
1967,1782079181.21242,0.987770,1344,1.6406
1968,1782079181.212591,0.987941,1353,1.6516
1969,1782079181.2128413,0.988191,1366,1.6675
1970,1782079181.2130003,0.988350,1361,1.6614
1971,1782079181.213147,0.988497,1358,1.6577
1972,1782079181.2132413,0.988591,1345,1.6418
1973,1782079181.2135324,0.988882,1331,1.6248
1974,1782079181.2139254,0.989275,1313,1.6028
1975,1782079181.2149878,0.990337,1298,1.5845
1976,1782079181.2150364,0.990386,1287,1.5710
1977,1782079181.2156086,0.990958,1284,1.5674
1978,1782079181.215914,0.991264,1286,1.5698
1979,1782079181.216472,0.991822,1301,1.5881
1980,1782079181.216938,0.992288,1321,1.6125
1981,1782079181.2174854,0.992835,1347,1.6443
1982,1782079181.2179499,0.993299,1373,1.6760
1983,1782079181.218475,0.993825,1389,1.6956
1984,1782079181.2189229,0.994272,1412,1.7236
1985,1782079181.2194731,0.994823,1415,1.7273
1986,1782079181.2199204,0.995270,1425,1.7395
1987,1782079181.2204707,0.995820,1424,1.7383
1988,1782079181.2209215,0.996271,1429,1.7444
1989,1782079181.2214453,0.996795,1431,1.7468
1990,1782079181.2219346,0.997284,1429,1.7444
1991,1782079181.2224712,0.997821,1423,1.7371
1992,1782079181.2229419,0.998291,1420,1.7334
1993,1782079181.2234814,0.998831,1411,1.7224
1994,1782079181.2242033,0.999553,1406,1.7163
1995,1782079181.224464,0.999814,1381,1.6858
1996,1782079181.2249656,1.000315,1368,1.6699
1997,1782079181.2254512,1.000801,1340,1.6357
1998,1782079181.231153,1.006503,1317,1.6077
1999,1782079181.2385395,1.013889,1290,1.5747
2000,1782079181.2392952,1.014645,1281,1.5637
2001,1782079181.2393692,1.014719,1254,1.5308
2002,1782079181.2399662,1.015316,1244,1.5186
2003,1782079181.2400074,1.015357,1233,1.5051
2004,1782079181.2400413,1.015391,1228,1.4990
2005,1782079181.2405534,1.015903,1223,1.4929
2006,1782079181.2405875,1.015937,1224,1.4941
2007,1782079181.2411408,1.016490,1211,1.4783
2008,1782079181.2411766,1.016526,1209,1.4758
2009,1782079181.241671,1.017021,1188,1.4502
2010,1782079181.2417107,1.017060,1183,1.4441
2011,1782079181.241743,1.017093,1159,1.4148
2012,1782079181.2443826,1.019732,1151,1.4050
2013,1782079181.2444313,1.019781,1127,1.3757
2014,1782079181.2445252,1.019875,1109,1.3538
2015,1782079181.2446005,1.019950,1092,1.3330
2016,1782079181.2446742,1.020024,1084,1.3232
2017,1782079181.2448266,1.020176,1088,1.3281
2018,1782079181.2448814,1.020231,1097,1.3391
2019,1782079181.2449102,1.020260,1117,1.3635
2020,1782079181.2450004,1.020350,1141,1.3928
2021,1782079181.2450688,1.020418,1159,1.4148
2022,1782079181.2451522,1.020502,1189,1.4514
2023,1782079181.2452097,1.020559,1203,1.4685
2024,1782079181.245255,1.020605,1230,1.5015
2025,1782079181.2452981,1.020648,1256,1.5332
2026,1782079181.2453432,1.020693,1279,1.5613
2027,1782079181.2453842,1.020734,1313,1.6028
2028,1782079181.2454922,1.020842,1348,1.6455
2029,1782079181.245602,1.020952,1374,1.6772
2030,1782079181.2456765,1.021026,1404,1.7139
2031,1782079181.2457635,1.021113,1416,1.7285
2032,1782079181.2458763,1.021226,1429,1.7444
2033,1782079181.245953,1.021303,1440,1.7578
2034,1782079181.2459857,1.021335,1451,1.7712
2035,1782079181.2460139,1.021363,1459,1.7810
2036,1782079181.2460554,1.021405,1467,1.7908
2037,1782079181.2460852,1.021435,1469,1.7932
2038,1782079181.2500944,1.025444,1472,1.7969
2039,1782079181.2501378,1.025487,1474,1.7993
2040,1782079181.250771,1.026121,1466,1.7896
2041,1782079181.2508266,1.026176,1469,1.7932
2042,1782079181.2509012,1.026251,1464,1.7871
2043,1782079181.2509522,1.026302,1464,1.7871
2044,1782079181.2509732,1.026323,1465,1.7883
2045,1782079181.251615,1.026965,1462,1.7847
2046,1782079181.2516444,1.026994,1459,1.7810
2047,1782079181.2516644,1.027014,1445,1.7639
2048,1782079181.2517047,1.027054,1444,1.7627
2049,1782079181.2517445,1.027094,1426,1.7407
2050,1782079181.2524462,1.027796,1409,1.7200
2051,1782079181.2524788,1.027828,1396,1.7041
2052,1782079181.2532072,1.028557,1387,1.6931
2053,1782079181.253873,1.029223,1373,1.6760
2054,1782079181.2539918,1.029341,1362,1.6626
2055,1782079181.2546616,1.030011,1353,1.6516
2056,1782079181.255538,1.030888,1345,1.6418
2057,1782079181.2555735,1.030923,1332,1.6260
2058,1782079181.2564313,1.031781,1311,1.6003
2059,1782079181.256501,1.031851,1301,1.5881
2060,1782079181.2610419,1.036391,1289,1.5735
2061,1782079181.2611382,1.036488,1286,1.5698
2062,1782079181.261201,1.036551,1280,1.5625
2063,1782079181.2612593,1.036609,1273,1.5540
2064,1782079181.261306,1.036656,1269,1.5491
2065,1782079181.2613652,1.036715,1256,1.5332
2066,1782079181.2614021,1.036752,1247,1.5222
2067,1782079181.2614467,1.036796,1247,1.5222
2068,1782079181.261559,1.036909,1248,1.5234
2069,1782079181.261654,1.037004,1262,1.5405
2070,1782079181.2620125,1.037362,1272,1.5527
2071,1782079181.263867,1.039217,1281,1.5637
2072,1782079181.2641137,1.039463,1286,1.5698
2073,1782079181.2667966,1.042146,1286,1.5698
2074,1782079181.266845,1.042195,1270,1.5503
2075,1782079181.2668726,1.042222,1255,1.5320
2076,1782079181.2669244,1.042274,1239,1.5125
2077,1782079181.2669528,1.042302,1220,1.4893
2078,1782079181.2670243,1.042374,1214,1.4819
2079,1782079181.267051,1.042401,1209,1.4758
2080,1782079181.2670958,1.042445,1206,1.4722
2081,1782079181.26751,1.042860,1213,1.4807
2082,1782079181.2686784,1.044028,1226,1.4966
2083,1782079181.2687132,1.044063,1241,1.5149
2084,1782079181.2689903,1.044340,1258,1.5356
2085,1782079181.2695317,1.044881,1283,1.5662
2086,1782079181.2700386,1.045388,1304,1.5918
2087,1782079181.2705433,1.045893,1335,1.6296
2088,1782079181.2710297,1.046379,1358,1.6577
2089,1782079181.271519,1.046869,1377,1.6809
2090,1782079181.2720232,1.047373,1388,1.6943
2091,1782079181.2725198,1.047869,1399,1.7078
2092,1782079181.2730222,1.048372,1403,1.7126
2093,1782079181.2735214,1.048871,1414,1.7261
2094,1782079181.274025,1.049375,1408,1.7188
2095,1782079181.274517,1.049867,1405,1.7151
2096,1782079181.2750616,1.050411,1400,1.7090
2097,1782079181.275513,1.050863,1397,1.7053
2098,1782079181.276065,1.051415,1384,1.6895
2099,1782079181.2766368,1.051986,1380,1.6846
2100,1782079181.2771125,1.052462,1375,1.6785
2101,1782079181.277616,1.052966,1365,1.6663
2102,1782079181.2781048,1.053454,1363,1.6638
2103,1782079181.2785418,1.053891,1351,1.6492
2104,1782079181.2790582,1.054408,1341,1.6370
2105,1782079181.2795541,1.054904,1325,1.6174
2106,1782079181.2800298,1.055379,1314,1.6040
2107,1782079181.2806253,1.055975,1294,1.5796
2108,1782079181.2810273,1.056377,1279,1.5613
2109,1782079181.281582,1.056932,1251,1.5271
2110,1782079181.2827842,1.058134,1225,1.4954
2111,1782079181.282849,1.058199,1197,1.4612
2112,1782079181.28306,1.058410,1160,1.4160
2113,1782079181.283603,1.058953,1132,1.3818
2114,1782079181.2841105,1.059460,1112,1.3574
2115,1782079181.2910914,1.066441,1095,1.3367
2116,1782079181.2948709,1.070220,1086,1.3257
2117,1782079181.2954516,1.070801,1083,1.3220
2118,1782079181.2994611,1.074811,1072,1.3086
2119,1782079181.299579,1.074929,1081,1.3196
2120,1782079181.2996218,1.074971,1090,1.3306
2121,1782079181.3007982,1.076148,1102,1.3452
2122,1782079181.3008587,1.076208,1120,1.3672
2123,1782079181.3016634,1.077013,1133,1.3831
2124,1782079181.301713,1.077063,1149,1.4026
2125,1782079181.3017545,1.077104,1158,1.4136
2126,1782079181.3017793,1.077129,1172,1.4307
2127,1782079181.3024387,1.077788,1188,1.4502
2128,1782079181.30247,1.077820,1206,1.4722
2129,1782079181.306266,1.081616,1221,1.4905
2130,1782079181.3063626,1.081712,1237,1.5100
2131,1782079181.306499,1.081849,1252,1.5283
2132,1782079181.3065498,1.081899,1265,1.5442
2133,1782079181.3066454,1.081995,1280,1.5625
2134,1782079181.3066797,1.082029,1288,1.5723
2135,1782079181.3067403,1.082090,1301,1.5881
2136,1782079181.3067715,1.082121,1311,1.6003
2137,1782079181.3068275,1.082177,1314,1.6040
2138,1782079181.306867,1.082217,1320,1.6113
2139,1782079181.306896,1.082246,1314,1.6040
2140,1782079181.3069274,1.082277,1305,1.5930
2141,1782079181.3069549,1.082304,1302,1.5894
2142,1782079181.3069906,1.082340,1299,1.5857
2143,1782079181.3070192,1.082369,1295,1.5808
2144,1782079181.3070626,1.082412,1301,1.5881
2145,1782079181.3070965,1.082446,1310,1.5991
2146,1782079181.3071506,1.082500,1321,1.6125
2147,1782079181.307181,1.082530,1338,1.6333
2148,1782079181.310478,1.085828,1355,1.6541
2149,1782079181.3105218,1.085871,1370,1.6724
2150,1782079181.3111334,1.086483,1382,1.6870
2151,1782079181.3111773,1.086527,1394,1.7017
2152,1782079181.3112123,1.086562,1414,1.7261
2153,1782079181.3112476,1.086597,1415,1.7273
2154,1782079181.3113024,1.086652,1430,1.7456
2155,1782079181.3122358,1.087585,1432,1.7480
2156,1782079181.3123534,1.087703,1442,1.7603
2157,1782079181.312421,1.087771,1444,1.7627
2158,1782079181.3124812,1.087831,1441,1.7590
2159,1782079181.3125453,1.087895,1447,1.7664
2160,1782079181.312814,1.088164,1444,1.7627
2161,1782079181.3128867,1.088236,1434,1.7505
2162,1782079181.3130555,1.088405,1430,1.7456
2163,1782079181.3131192,1.088469,1415,1.7273
2164,1782079181.3131866,1.088536,1411,1.7224
2165,1782079181.3133264,1.088676,1396,1.7041
2166,1782079181.3134034,1.088753,1391,1.6980
2167,1782079181.3134403,1.088790,1377,1.6809
2168,1782079181.3144562,1.089806,1361,1.6614
2169,1782079181.3145213,1.089871,1344,1.6406
2170,1782079181.314575,1.089925,1320,1.6113
2171,1782079181.3146043,1.089954,1304,1.5918
2172,1782079181.3146374,1.089987,1295,1.5808
2173,1782079181.3146808,1.090030,1289,1.5735
2174,1782079181.3147373,1.090087,1278,1.5601
2175,1782079181.3147712,1.090121,1273,1.5540
2176,1782079181.315535,1.090885,1268,1.5479
2177,1782079181.3156247,1.090974,1257,1.5344
2178,1782079181.3163054,1.091655,1248,1.5234
2179,1782079181.3168898,1.092239,1242,1.5161
2180,1782079181.3174634,1.092813,1243,1.5173
2181,1782079181.3175967,1.092946,1245,1.5198
2182,1782079181.318111,1.093461,1247,1.5222
2183,1782079181.321572,1.096922,1250,1.5259
2184,1782079181.3227582,1.098108,1251,1.5271
2185,1782079181.32283,1.098180,1252,1.5283
2186,1782079181.3228643,1.098214,1252,1.5283
2187,1782079181.322898,1.098248,1253,1.5295
2188,1782079181.3229635,1.098313,1249,1.5247
2189,1782079181.323008,1.098358,1245,1.5198
2190,1782079181.323055,1.098405,1234,1.5063
2191,1782079181.3230832,1.098433,1226,1.4966
2192,1782079181.3231156,1.098465,1217,1.4856
2193,1782079181.324863,1.100213,1210,1.4771
2194,1782079181.3249724,1.100322,1209,1.4758
2195,1782079181.3277836,1.103133,1205,1.4709
2196,1782079181.3278177,1.103167,1207,1.4734
2197,1782079181.3278482,1.103198,1217,1.4856
2198,1782079181.3278983,1.103248,1224,1.4941
2199,1782079181.3279285,1.103278,1233,1.5051
2200,1782079181.327978,1.103328,1241,1.5149
2201,1782079181.328,1.103350,1250,1.5259
2202,1782079181.3280911,1.103441,1255,1.5320
2203,1782079181.328607,1.103957,1263,1.5417
2204,1782079181.3291097,1.104459,1266,1.5454
2205,1782079181.329571,1.104921,1275,1.5564
2206,1782079181.3307068,1.106056,1277,1.5588
2207,1782079181.3307824,1.106132,1275,1.5564
2208,1782079181.3311255,1.106475,1280,1.5625
2209,1782079181.3316274,1.106977,1271,1.5515
2210,1782079181.332115,1.107465,1265,1.5442
2211,1782079181.3326333,1.107983,1248,1.5234
2212,1782079181.333122,1.108472,1233,1.5051
2213,1782079181.3336418,1.108991,1217,1.4856
2214,1782079181.334162,1.109512,1210,1.4771
2215,1782079181.334642,1.109992,1200,1.4648
2216,1782079181.335158,1.110508,1192,1.4551
2217,1782079181.3356626,1.111012,1185,1.4465
2218,1782079181.3361497,1.111499,1185,1.4465
2219,1782079181.3366578,1.112007,1179,1.4392
2220,1782079181.3371634,1.112513,1177,1.4368
2221,1782079181.3376496,1.112999,1181,1.4417
2222,1782079181.3381267,1.113476,1189,1.4514
2223,1782079181.3386526,1.114002,1191,1.4539
2224,1782079181.3391263,1.114476,1203,1.4685
2225,1782079181.3396816,1.115031,1204,1.4697
2226,1782079181.3401299,1.115479,1209,1.4758
2227,1782079181.340625,1.115975,1217,1.4856
2228,1782079181.341124,1.116474,1223,1.4929
2229,1782079181.341643,1.116993,1225,1.4954
2230,1782079181.3423965,1.117746,1228,1.4990
2231,1782079181.3426287,1.117978,1239,1.5125
2232,1782079181.343151,1.118501,1242,1.5161
2233,1782079181.344269,1.119619,1253,1.5295
2234,1782079181.3553133,1.130663,1264,1.5430
2235,1782079181.3568122,1.132162,1269,1.5491
2236,1782079181.3568563,1.132206,1279,1.5613
2237,1782079181.3568907,1.132240,1289,1.5735
2238,1782079181.3576782,1.133028,1303,1.5906
2239,1782079181.3577187,1.133068,1308,1.5967
2240,1782079181.3577485,1.133098,1319,1.6101
2241,1782079181.3584495,1.133799,1323,1.6150
2242,1782079181.358482,1.133832,1327,1.6199
2243,1782079181.3585134,1.133863,1331,1.6248
2244,1782079181.3591778,1.134527,1333,1.6272
2245,1782079181.3592112,1.134561,1327,1.6199
2246,1782079181.3592415,1.134591,1329,1.6223
2247,1782079181.359922,1.135272,1325,1.6174
2248,1782079181.360549,1.135899,1330,1.6235
2249,1782079181.3605843,1.135934,1323,1.6150
2250,1782079181.3606095,1.135959,1322,1.6138
2251,1782079181.361385,1.136735,1315,1.6052
2252,1782079181.361515,1.136865,1314,1.6040
2253,1782079181.361564,1.136914,1300,1.5869
2254,1782079181.3616018,1.136951,1287,1.5710
2255,1782079181.361643,1.136993,1278,1.5601
2256,1782079181.3629735,1.138323,1259,1.5369
2257,1782079181.3660235,1.141373,1244,1.5186
2258,1782079181.366085,1.141435,1232,1.5039
2259,1782079181.3661494,1.141499,1231,1.5027
2260,1782079181.3661902,1.141540,1226,1.4966
2261,1782079181.3662732,1.141623,1221,1.4905
2262,1782079181.3663247,1.141674,1227,1.4978
2263,1782079181.3663552,1.141705,1228,1.4990
2264,1782079181.3664074,1.141757,1236,1.5088
2265,1782079181.3664367,1.141786,1242,1.5161
2266,1782079181.3664653,1.141815,1245,1.5198
2267,1782079181.366493,1.141843,1249,1.5247
2268,1782079181.3665326,1.141882,1250,1.5259
2269,1782079181.3665586,1.141908,1254,1.5308
2270,1782079181.3665838,1.141933,1252,1.5283
2271,1782079181.3666294,1.141979,1252,1.5283
2272,1782079181.366666,1.142016,1249,1.5247
2273,1782079181.3702207,1.145570,1248,1.5234
2274,1782079181.3702803,1.145630,1247,1.5222
2275,1782079181.3703184,1.145668,1241,1.5149
2276,1782079181.3710434,1.146393,1236,1.5088
2277,1782079181.3711095,1.146459,1238,1.5112
2278,1782079181.3711436,1.146493,1238,1.5112
2279,1782079181.3711886,1.146538,1246,1.5210
2280,1782079181.3712435,1.146593,1246,1.5210
2281,1782079181.3712761,1.146626,1248,1.5234
2282,1782079181.3720183,1.147368,1252,1.5283
2283,1782079181.3720756,1.147425,1243,1.5173
2284,1782079181.3721075,1.147457,1242,1.5161
2285,1782079181.372139,1.147489,1239,1.5125
2286,1782079181.3721836,1.147533,1232,1.5039
2287,1782079181.372233,1.147583,1223,1.4929
2288,1782079181.372266,1.147616,1219,1.4880
2289,1782079181.3723083,1.147658,1209,1.4758
2290,1782079181.3723397,1.147689,1201,1.4661
2291,1782079181.373007,1.148357,1204,1.4697
2292,1782079181.3736768,1.149026,1202,1.4673
2293,1782079181.3737185,1.149068,1202,1.4673
2294,1782079181.3743877,1.149737,1203,1.4685
2295,1782079181.375078,1.150428,1205,1.4709
2296,1782079181.375183,1.150533,1199,1.4636
2297,1782079181.3757014,1.151051,1207,1.4734
2298,1782079181.3765042,1.151854,1209,1.4758
2299,1782079181.3797488,1.155098,1211,1.4783
2300,1782079181.3817549,1.157104,1220,1.4893
2301,1782079181.3818486,1.157198,1215,1.4832
2302,1782079181.3818977,1.157247,1210,1.4771
2303,1782079181.3819754,1.157325,1197,1.4612
2304,1782079181.382018,1.157368,1192,1.4551
2305,1782079181.3820539,1.157403,1183,1.4441
2306,1782079181.38211,1.157460,1181,1.4417
2307,1782079181.38214,1.157490,1169,1.4270
2308,1782079181.3821988,1.157548,1172,1.4307
2309,1782079181.3822412,1.157591,1173,1.4319
2310,1782079181.3822742,1.157624,1180,1.4404
2311,1782079181.3839836,1.159333,1188,1.4502
2312,1782079181.3842187,1.159568,1206,1.4722
2313,1782079181.384432,1.159782,1210,1.4771
2314,1782079181.386923,1.162273,1224,1.4941
2315,1782079181.3869984,1.162348,1232,1.5039
2316,1782079181.3870337,1.162383,1241,1.5149
2317,1782079181.3870664,1.162416,1248,1.5234
2318,1782079181.3870966,1.162446,1252,1.5283
2319,1782079181.3871462,1.162496,1249,1.5247
2320,1782079181.3872628,1.162612,1249,1.5247
2321,1782079181.3877194,1.163069,1249,1.5247
2322,1782079181.388714,1.164064,1242,1.5161
2323,1782079181.3888516,1.164201,1246,1.5210
2324,1782079181.3894415,1.164791,1250,1.5259
2325,1782079181.3896952,1.165045,1257,1.5344
2326,1782079181.390219,1.165569,1254,1.5308
2327,1782079181.3906977,1.166047,1264,1.5430
2328,1782079181.3911872,1.166537,1265,1.5442
2329,1782079181.3916938,1.167043,1272,1.5527
2330,1782079181.3921995,1.167549,1273,1.5540
2331,1782079181.3927016,1.168051,1274,1.5552
2332,1782079181.393198,1.168548,1272,1.5527
2333,1782079181.393728,1.169078,1272,1.5527
2334,1782079181.3942451,1.169595,1260,1.5381
2335,1782079181.394715,1.170065,1260,1.5381
2336,1782079181.395223,1.170573,1250,1.5259
2337,1782079181.3957114,1.171061,1254,1.5308
2338,1782079181.396249,1.171599,1251,1.5271
2339,1782079181.3967283,1.172078,1264,1.5430
2340,1782079181.397206,1.172556,1266,1.5454
2341,1782079181.397686,1.173036,1276,1.5576
2342,1782079181.3982599,1.173609,1283,1.5662
2343,1782079181.3987448,1.174094,1295,1.5808
2344,1782079181.3992755,1.174625,1300,1.5869
2345,1782079181.4004276,1.175777,1314,1.6040
2346,1782079181.4004812,1.175831,1312,1.6016
2347,1782079181.400752,1.176102,1312,1.6016
2348,1782079181.4012654,1.176615,1303,1.5906
2349,1782079181.4017506,1.177100,1286,1.5698
2350,1782079181.4026709,1.178020,1276,1.5576
2351,1782079181.4107077,1.186057,1262,1.5405
2352,1782079181.4107647,1.186114,1242,1.5161
2353,1782079181.4128718,1.188221,1229,1.5002
2354,1782079181.41307,1.188420,1208,1.4746
2355,1782079181.4131138,1.188463,1189,1.4514
2356,1782079181.4141157,1.189465,1169,1.4270
2357,1782079181.4141762,1.189526,1153,1.4075
2358,1782079181.414714,1.190064,1149,1.4026
2359,1782079181.415322,1.190672,1150,1.4038
2360,1782079181.418035,1.193385,1148,1.4014
2361,1782079181.418081,1.193431,1156,1.4111
2362,1782079181.4181085,1.193458,1161,1.4172
2363,1782079181.4181445,1.193494,1162,1.4185
2364,1782079181.4181898,1.193539,1162,1.4185
2365,1782079181.418216,1.193566,1161,1.4172
2366,1782079181.4183002,1.193650,1159,1.4148
2367,1782079181.4183302,1.193680,1155,1.4099
2368,1782079181.4183624,1.193712,1150,1.4038
2369,1782079181.4184067,1.193756,1151,1.4050
2370,1782079181.420927,1.196277,1147,1.4001
2371,1782079181.4209652,1.196315,1150,1.4038
2372,1782079181.4215562,1.196906,1142,1.3940
2373,1782079181.4215884,1.196938,1144,1.3965
2374,1782079181.4216156,1.196965,1144,1.3965
2375,1782079181.4216638,1.197013,1147,1.4001
2376,1782079181.421691,1.197041,1144,1.3965
2377,1782079181.4217322,1.197082,1148,1.4014
2378,1782079181.4217687,1.197118,1143,1.3953
2379,1782079181.4223542,1.197704,1141,1.3928
2380,1782079181.4223964,1.197746,1137,1.3879
2381,1782079181.4224231,1.197773,1137,1.3879
2382,1782079181.4224513,1.197801,1134,1.3843
2383,1782079181.4224863,1.197836,1120,1.3672
2384,1782079181.4225216,1.197871,1117,1.3635
2385,1782079181.4225483,1.197898,1103,1.3464
2386,1782079181.4231093,1.198459,1100,1.3428
2387,1782079181.4231355,1.198485,1087,1.3269
2388,1782079181.4231749,1.198524,1079,1.3171
2389,1782079181.4231987,1.198548,1084,1.3232
2390,1782079181.4232216,1.198571,1081,1.3196
2391,1782079181.4232805,1.198630,1098,1.3403
2392,1782079181.4233053,1.198655,1104,1.3477
2393,1782079181.4239113,1.199261,1115,1.3611
2394,1782079181.4245117,1.199861,1118,1.3647
2395,1782079181.4251645,1.200514,1122,1.3696
2396,1782079181.4252665,1.200616,1119,1.3660
2397,1782079181.4258392,1.201189,1113,1.3586
2398,1782079181.4265404,1.201890,1109,1.3538
2399,1782079181.429151,1.204501,1113,1.3586
2400,1782079181.431749,1.207099,1118,1.3647
2401,1782079181.4318526,1.207202,1126,1.3745
2402,1782079181.4319146,1.207264,1142,1.3940
2403,1782079181.4319696,1.207319,1151,1.4050
2404,1782079181.4320068,1.207356,1164,1.4209
2405,1782079181.4320452,1.207395,1183,1.4441
2406,1782079181.432076,1.207426,1197,1.4612
2407,1782079181.4321268,1.207476,1223,1.4929
2408,1782079181.4321601,1.207510,1238,1.5112
2409,1782079181.4322011,1.207551,1260,1.5381
2410,1782079181.4322898,1.207639,1285,1.5686
2411,1782079181.4332914,1.208641,1315,1.6052
2412,1782079181.4333906,1.208740,1335,1.6296
2413,1782079181.4353278,1.210677,1366,1.6675
2414,1782079181.4353733,1.210723,1387,1.6931
2415,1782079181.4354248,1.210774,1400,1.7090
2416,1782079181.4354746,1.210824,1421,1.7346
2417,1782079181.4358113,1.211161,1433,1.7493
2418,1782079181.4365728,1.211922,1447,1.7664
2419,1782079181.4367802,1.212130,1461,1.7834
2420,1782079181.4373097,1.212659,1458,1.7798
2421,1782079181.4378073,1.213157,1472,1.7969
2422,1782079181.4383037,1.213653,1463,1.7859
2423,1782079181.4388092,1.214159,1453,1.7737
2424,1782079181.4393208,1.214670,1448,1.7676
2425,1782079181.4398224,1.215172,1439,1.7566
2426,1782079181.440325,1.215675,1421,1.7346
2427,1782079181.44082,1.216170,1414,1.7261
2428,1782079181.4413223,1.216672,1399,1.7078
2429,1782079181.441819,1.217169,1391,1.6980
2430,1782079181.4423418,1.217691,1384,1.6895
2431,1782079181.4428165,1.218166,1377,1.6809
2432,1782079181.4433453,1.218695,1371,1.6736
2433,1782079181.444073,1.219423,1367,1.6687
2434,1782079181.4443297,1.219679,1353,1.6516
2435,1782079181.4449015,1.220251,1351,1.6492
2436,1782079181.4453444,1.220694,1341,1.6370
2437,1782079181.44585,1.221200,1333,1.6272
2438,1782079181.4541569,1.229506,1333,1.6272
2439,1782079181.454247,1.229597,1322,1.6138
2440,1782079181.4547153,1.230065,1312,1.6016
2441,1782079181.4547458,1.230095,1297,1.5833
2442,1782079181.455191,1.230541,1286,1.5698
2443,1782079181.4556158,1.230965,1269,1.5491
2444,1782079181.4561331,1.231483,1248,1.5234
2445,1782079181.4561648,1.231514,1229,1.5002
2446,1782079181.4565458,1.231895,1206,1.4722
2447,1782079181.4565778,1.231927,1189,1.4514
2448,1782079181.4588377,1.234187,1165,1.4221
2449,1782079181.458883,1.234233,1142,1.3940
2450,1782079181.4589136,1.234263,1124,1.3721
2451,1782079181.4589462,1.234296,1102,1.3452
2452,1782079181.45899,1.234340,1092,1.3330
2453,1782079181.4590352,1.234385,1079,1.3171
2454,1782079181.459064,1.234414,1069,1.3049
2455,1782079181.45909,1.234440,1065,1.3000
2456,1782079181.4591181,1.234468,1051,1.2830
2457,1782079181.4591773,1.234527,1045,1.2756
2458,1782079181.459215,1.234565,1032,1.2598
2459,1782079181.4611945,1.236544,1027,1.2537
2460,1782079181.4614398,1.236789,1018,1.2427
2461,1782079181.4625316,1.237881,1003,1.2244
2462,1782079181.4626386,1.237988,991,1.2097
2463,1782079181.462684,1.238034,984,1.2012
2464,1782079181.4627683,1.238118,970,1.1841
2465,1782079181.462894,1.238244,965,1.1780
2466,1782079181.4629922,1.238342,962,1.1743
2467,1782079181.4637027,1.239052,961,1.1731
2468,1782079181.4638164,1.239166,968,1.1816
2469,1782079181.4639268,1.239276,972,1.1865
2470,1782079181.4640093,1.239359,977,1.1926
2471,1782079181.4640393,1.239389,983,1.2000
2472,1782079181.4645588,1.239908,992,1.2109
2473,1782079181.4645927,1.239942,1009,1.2317
2474,1782079181.4646325,1.239982,1026,1.2524
2475,1782079181.465166,1.240516,1055,1.2878
2476,1782079181.4656541,1.241004,1083,1.3220
2477,1782079181.4661865,1.241536,1111,1.3562
2478,1782079181.4666803,1.242030,1137,1.3879
2479,1782079181.4671586,1.242508,1157,1.4124
2480,1782079181.4699087,1.245258,1177,1.4368
2481,1782079181.4699702,1.245320,1191,1.4539
2482,1782079181.4700134,1.245363,1200,1.4648
2483,1782079181.470055,1.245405,1190,1.4526
2484,1782079181.470082,1.245432,1186,1.4478
2485,1782079181.4701114,1.245461,1176,1.4355
2486,1782079181.4703484,1.245698,1154,1.4087
2487,1782079181.4711545,1.246504,1133,1.3831
2488,1782079181.4730077,1.248357,1104,1.3477
2489,1782079181.4730632,1.248413,1083,1.3220
2490,1782079181.473092,1.248442,1062,1.2964
2491,1782079181.4731357,1.248485,1041,1.2708
2492,1782079181.4733038,1.248653,1014,1.2378
2493,1782079181.4741075,1.249457,986,1.2036
2494,1782079181.4743555,1.249705,961,1.1731
2495,1782079181.4749088,1.250258,931,1.1365
2496,1782079181.4754019,1.250751,908,1.1084
2497,1782079181.475911,1.251261,892,1.0889
2498,1782079181.4763987,1.251748,876,1.0693
2499,1782079181.4769,1.252250,864,1.0547
2500,1782079181.4774635,1.252813,863,1.0535
2501,1782079181.4779253,1.253275,862,1.0522
2502,1782079181.4783928,1.253742,870,1.0620
2503,1782079181.4788702,1.254220,880,1.0742
2504,1782079181.4794266,1.254776,894,1.0913
2505,1782079181.479921,1.255271,902,1.1011
2506,1782079181.4803905,1.255740,919,1.1218
2507,1782079181.4808996,1.256249,927,1.1316
2508,1782079181.4814034,1.256753,941,1.1487
2509,1782079181.4818826,1.257232,959,1.1707
2510,1782079181.48238,1.257730,970,1.1841
2511,1782079181.482864,1.258214,987,1.2048
2512,1782079181.4834788,1.258828,1013,1.2366
2513,1782079181.4838953,1.259245,1030,1.2573
2514,1782079181.4844565,1.259806,1054,1.2866
2515,1782079181.4874253,1.262775,1089,1.3293
2516,1782079181.4915314,1.266881,1118,1.3647
2517,1782079181.4924994,1.267849,1151,1.4050
2518,1782079181.492654,1.268004,1185,1.4465
2519,1782079181.4931867,1.268536,1221,1.4905
2520,1782079181.4932654,1.268615,1255,1.5320
2521,1782079181.493751,1.269101,1289,1.5735
2522,1782079181.4937851,1.269135,1318,1.6089
2523,1782079181.4941988,1.269548,1335,1.6296
2524,1782079181.494229,1.269579,1352,1.6504
2525,1782079181.4946215,1.269971,1371,1.6736
2526,1782079181.494929,1.270279,1387,1.6931
2527,1782079181.4949772,1.270327,1411,1.7224
2528,1782079181.4960651,1.271415,1432,1.7480
2529,1782079181.4991481,1.274498,1449,1.7688
2530,1782079181.4992094,1.274559,1451,1.7712
2531,1782079181.4992406,1.274590,1457,1.7786
2532,1782079181.4992726,1.274622,1456,1.7773
2533,1782079181.4993026,1.274652,1435,1.7517
2534,1782079181.4993372,1.274687,1421,1.7346
2535,1782079181.4993632,1.274713,1393,1.7004
2536,1782079181.5014946,1.276844,1366,1.6675
2537,1782079181.5015519,1.276901,1330,1.6235
2538,1782079181.5020382,1.277388,1305,1.5930
2539,1782079181.502086,1.277436,1269,1.5491
2540,1782079181.5025902,1.277940,1236,1.5088
2541,1782079181.5026693,1.278019,1200,1.4648
2542,1782079181.5027127,1.278062,1162,1.4185
2543,1782079181.5031826,1.278532,1133,1.3831
2544,1782079181.5032787,1.278628,1112,1.3574
2545,1782079181.503311,1.278661,1097,1.3391
2546,1782079181.5037992,1.279149,1088,1.3281
2547,1782079181.5038452,1.279195,1082,1.3208
2548,1782079181.5042999,1.279649,1075,1.3123
2549,1782079181.5043972,1.279747,1068,1.3037
2550,1782079181.5044713,1.279821,1058,1.2915
2551,1782079181.5045059,1.279855,1056,1.2891
2552,1782079181.5045302,1.279880,1048,1.2793
2553,1782079181.5045521,1.279902,1051,1.2830
2554,1782079181.5050318,1.280381,1055,1.2878
2555,1782079181.5050833,1.280433,1058,1.2915
2556,1782079181.5055513,1.280901,1056,1.2891
2557,1782079181.5060983,1.281448,1065,1.3000
2558,1782079181.509013,1.284363,1074,1.3110
2559,1782079181.509069,1.284419,1093,1.3342
2560,1782079181.5091264,1.284476,1110,1.3550
2561,1782079181.5091543,1.284504,1128,1.3770
2562,1782079181.5091975,1.284547,1141,1.3928
2563,1782079181.5092406,1.284590,1146,1.3989
2564,1782079181.5094633,1.284813,1129,1.3782
2565,1782079181.5105479,1.285897,1107,1.3513
2566,1782079181.5141187,1.289468,1061,1.2952
2567,1782079181.514194,1.289544,1026,1.2524
2568,1782079181.5142336,1.289583,993,1.2122
2569,1782079181.5142875,1.289637,979,1.1951
2570,1782079181.5143144,1.289664,978,1.1938
2571,1782079181.5143592,1.289709,990,1.2085
2572,1782079181.5143874,1.289737,1006,1.2280
2573,1782079181.514428,1.289778,1027,1.2537
2574,1782079181.5144906,1.289840,1042,1.2720
2575,1782079181.514968,1.290318,1054,1.2866
2576,1782079181.5156329,1.290982,1069,1.3049
2577,1782079181.5159452,1.291295,1082,1.3208
2578,1782079181.516473,1.291823,1104,1.3477
2579,1782079181.5169718,1.292321,1124,1.3721
2580,1782079181.517468,1.292818,1154,1.4087
2581,1782079181.517967,1.293317,1191,1.4539
2582,1782079181.5184684,1.293818,1217,1.4856
2583,1782079181.5189507,1.294300,1243,1.5173
2584,1782079181.5194767,1.294826,1249,1.5247
2585,1782079181.5199342,1.295284,1260,1.5381
2586,1782079181.520469,1.295819,1247,1.5222
2587,1782079181.5209365,1.296286,1238,1.5112
2588,1782079181.5214753,1.296825,1212,1.4795
2589,1782079181.521973,1.297323,1204,1.4697
2590,1782079181.5224845,1.297834,1193,1.4563
2591,1782079181.5229824,1.298332,1191,1.4539
2592,1782079181.5235076,1.298857,1187,1.4490
2593,1782079181.5239553,1.299305,1169,1.4270
2594,1782079181.5244725,1.299822,1147,1.4001
2595,1782079181.5250273,1.300377,1121,1.3684
2596,1782079181.525888,1.301238,1092,1.3330
2597,1782079181.526088,1.301438,1064,1.2988
2598,1782079181.5265741,1.301924,1034,1.2622
2599,1782079181.5270395,1.302389,1011,1.2341
2600,1782079181.532392,1.307742,993,1.2122
2601,1782079181.5389235,1.314273,981,1.1975
2602,1782079181.541212,1.316562,980,1.1963
2603,1782079181.5440805,1.319430,977,1.1926
2604,1782079181.5441406,1.319490,988,1.2061
2605,1782079181.5441906,1.319540,997,1.2170
2606,1782079181.5442486,1.319598,1022,1.2476
2607,1782079181.5443473,1.319697,1041,1.2708
2608,1782079181.5443752,1.319725,1066,1.3013
2609,1782079181.548383,1.323733,1103,1.3464
2610,1782079181.549015,1.324365,1126,1.3745
2611,1782079181.549072,1.324422,1168,1.4258
2612,1782079181.549549,1.324899,1186,1.4478
2613,1782079181.5496187,1.324968,1203,1.4685
2614,1782079181.5496538,1.325003,1211,1.4783
2615,1782079181.5496826,1.325032,1216,1.4844
2616,1782079181.5502057,1.325555,1204,1.4697
2617,1782079181.5502722,1.325622,1194,1.4575
2618,1782079181.550308,1.325658,1174,1.4331
2619,1782079181.5503333,1.325683,1160,1.4160
2620,1782079181.5508113,1.326161,1141,1.3928
2621,1782079181.550871,1.326221,1127,1.3757
2622,1782079181.551362,1.326712,1115,1.3611
2623,1782079181.5514386,1.326788,1112,1.3574
2624,1782079181.5514774,1.326827,1114,1.3599
2625,1782079181.5519032,1.327253,1115,1.3611
2626,1782079181.5519629,1.327312,1125,1.3733
2627,1782079181.5520506,1.327400,1130,1.3794
2628,1782079181.552083,1.327433,1145,1.3977
2629,1782079181.5521142,1.327464,1166,1.4233
2630,1782079181.552138,1.327488,1193,1.4563
2631,1782079181.5525532,1.327903,1212,1.4795
2632,1782079181.552613,1.327963,1232,1.5039
2633,1782079181.5526721,1.328022,1251,1.5271
2634,1782079181.5527198,1.328069,1257,1.5344
2635,1782079181.5527506,1.328100,1261,1.5393
2636,1782079181.5527768,1.328126,1269,1.5491
2637,1782079181.5533173,1.328667,1268,1.5479
2638,1782079181.5562108,1.331560,1265,1.5442
2639,1782079181.5562804,1.331630,1249,1.5247
2640,1782079181.5563111,1.331661,1233,1.5051
2641,1782079181.556352,1.331702,1211,1.4783
2642,1782079181.5563803,1.331730,1190,1.4526
2643,1782079181.55641,1.331760,1159,1.4148
2644,1782079181.556438,1.331788,1126,1.3745
2645,1782079181.5565035,1.331853,1108,1.3525
2646,1782079181.5565386,1.331888,1089,1.3293
2647,1782079181.556594,1.331944,1067,1.3025
2648,1782079181.5566237,1.331973,1055,1.2878
2649,1782079181.5566697,1.332019,1044,1.2744
2650,1782079181.556698,1.332048,1022,1.2476
2651,1782079181.5567245,1.332074,1004,1.2256
2652,1782079181.5567493,1.332099,981,1.1975
2653,1782079181.5567884,1.332138,958,1.1694
2654,1782079181.5568185,1.332168,933,1.1389
2655,1782079181.5568585,1.332208,909,1.1096
2656,1782079181.556883,1.332233,885,1.0803
2657,1782079181.556911,1.332261,865,1.0559
2658,1782079181.5569339,1.332283,840,1.0254
2659,1782079181.5579383,1.333288,814,0.9937
2660,1782079181.5599198,1.335269,798,0.9741
2661,1782079181.5600133,1.335363,773,0.9436
2662,1782079181.5600524,1.335402,745,0.9094
2663,1782079181.5600886,1.335438,717,0.8752
2664,1782079181.5601158,1.335465,685,0.8362
2665,1782079181.560144,1.335494,650,0.7935
2666,1782079181.5605936,1.335943,622,0.7593
2667,1782079181.5612087,1.336558,601,0.7336
2668,1782079181.5615246,1.336874,596,0.7275
2669,1782079181.5622203,1.337570,598,0.7300
2670,1782079181.562559,1.337909,616,0.7520
2671,1782079181.5631776,1.338527,637,0.7776
2672,1782079181.5635502,1.338900,664,0.8105
2673,1782079181.5641115,1.339461,693,0.8459
2674,1782079181.5646253,1.339975,726,0.8862
2675,1782079181.5650973,1.340447,761,0.9290
2676,1782079181.5656445,1.340994,804,0.9814
2677,1782079181.5661469,1.341496,855,1.0437
2678,1782079181.5666442,1.341994,915,1.1169
2679,1782079181.5671158,1.342465,990,1.2085
2680,1782079181.5676458,1.342995,1067,1.3025
2681,1782079181.568145,1.343495,1153,1.4075
2682,1782079181.5686524,1.344002,1245,1.5198
2683,1782079181.5691273,1.344477,1331,1.6248
2684,1782079181.5699196,1.345269,1419,1.7322
2685,1782079181.5700374,1.345387,1503,1.8347
2686,1782079181.5706625,1.346012,1581,1.9299
2687,1782079181.5710742,1.346424,1655,2.0203
2688,1782079181.5804608,1.355810,1721,2.1008
2689,1782079181.5819514,1.357301,1785,2.1790
2690,1782079181.5820162,1.357366,1836,2.2412
2691,1782079181.5824924,1.357842,1874,2.2876
2692,1782079181.582561,1.357911,1906,2.3267
2693,1782079181.5837936,1.359143,1908,2.3291
2694,1782079181.5838633,1.359213,1906,2.3267
2695,1782079181.5866306,1.361980,1882,2.2974
2696,1782079181.586698,1.362048,1846,2.2534
2697,1782079181.5867283,1.362078,1791,2.1863
2698,1782079181.5867596,1.362109,1732,2.1143
2699,1782079181.5867884,1.362138,1671,2.0398
2700,1782079181.5893028,1.364652,1605,1.9592
2701,1782079181.5898921,1.365242,1533,1.8713
2702,1782079181.5899613,1.365311,1464,1.7871
2703,1782079181.5899925,1.365342,1385,1.6907
2704,1782079181.5904694,1.365819,1305,1.5930
2705,1782079181.5905633,1.365913,1235,1.5076
2706,1782079181.5906436,1.365993,1171,1.4294
2707,1782079181.5906892,1.366039,1112,1.3574
